Elapsed Time,II
0.0,0.04325944412194752
0.002,0.06846170462043662
0.004,0.12560630576325635
0.006,0.14657783258838974
0.008,0.17386152652967662
0.01,0.1859627537049352
0.012,0.19419668504303758
0.014,0.19813963411746316
0.016,0.20778694967996916
0.018,0.22334916369476673
0.02,0.23510186910216269
0.022,0.2605842780627354
0.024,0.27155776333588844
0.026,0.27838705803324826
0.028,0.28341361494156286
0.03,0.27806872419865697
0.032,0.2695043744516159
0.034,0.2679281638113247
0.036,0.2685700584675922
0.038,0.2628599607145233
0.04,0.26984894081247235
0.042,0.2638244141970828
0.044,0.2579144921054123
0.046,0.2400642099761197
0.048,0.23067111580887112
0.05,0.2130307703567994
0.052,0.19102803155650244
0.054,0.19497236007512586
0.056,0.17800266813234186
0.058,0.17030978212738207
0.06,0.17170014422142457
0.062,0.15696097349761012
0.064,0.14496045049988066
0.066,0.13439105854232064
0.068,0.12184808905025114
0.07,0.09891629732048915
0.072,0.08327737133009061
0.074,0.06510378934635995
0.076,0.0368315599459628
0.078,0.009939714119172497
0.08,-0.0015600275961653886
0.082,-0.02850470065873765
0.084,-0.04417299828180774
0.086,-0.04211587148538337
0.088,-0.06239332415273522
0.09,-0.07595754554954263
0.092,-0.0897088383468846
0.094,-0.12027143820815524
0.096,-0.15473212010276322
0.098,-0.17718508104318562
0.1,-0.20089952870971667
0.102,-0.21436548853805026
0.104,-0.21762059447611545
0.106,-0.20401070156532314
0.108,-0.20700254594864803
0.11,-0.20268255275753969
0.112,-0.1990898316382468
0.114,-0.21363411938298874
0.116,-0.22403667107065484
0.118,-0.2272917184529099
0.12,-0.22617376278652992
0.122,-0.23370615333463002
0.124,-0.2149886986009573
0.126,-0.21015679715663121
0.128,-0.2171952510745209
0.13,-0.21614514939848586
0.132,-0.22300817010659052
0.134,-0.24222376838232998
0.136,-0.2529827254664654
0.138,-0.24587145438757876
0.14,-0.25515187299040454
0.142,-0.2514722571338429
0.144,-0.23027799199418245
0.146,-0.2315440824310958
0.148,-0.22930852903006604
0.15,-0.21470520646894775
0.152,-0.21107851042951603
0.154,-0.2160380648032808
0.156,-0.2017040848534526
0.158,-0.18717299514845276
0.16,-0.19822532683884084
0.162,-0.1853812376371615
0.164,-0.17096898428338447
0.166,-0.18760196236506407
0.168,-0.18024157864409943
0.17,-0.16465793934528158
0.172,-0.17250125106226225
0.174,-0.17443465177051717
0.176,-0.15449346799126457
0.178,-0.16090996199794763
0.18,-0.18101237956376984
0.182,-0.16428613475343412
0.184,-0.16382712403248334
0.186,-0.1904990683762529
0.188,-0.16257910359786473
0.19,-0.13012844441197918
0.192,-0.16077575606888952
0.194,-0.11701728501874112
0.196,-0.06312230397424307
0.198,-0.13487794783220408
0.2,-0.05458040292476917
0.202,-0.06129987280856261
0.204,-0.09790732775056676
0.206,-0.06340397401359979
0.208,-0.05720675075045557
0.21,-0.09217965077503106
0.212,-0.0709625256068728
0.214,-0.04919176142569755
0.216,-0.07223499258316837
0.218,-0.05274388008616606
0.22,-0.014007993111275638
0.222,-0.030581648260819695
0.224,-0.012630356366550155
0.226,0.008052964114756238
0.228,-2.433759020279564e-05
0.23,-0.01662661850958508
0.232,0.0026542765433580123
0.234,-0.0065830865189872015
0.236,-0.019076169688745318
0.238,0.0020062757188741755
0.24,0.01562953623775524
0.242,-0.0013887050474330506
0.244,0.017221888784297163
0.246,0.02239341028210943
0.248,-0.004073332453687115
0.25,0.000328355240430029
0.252,0.002723959934440638
0.254,-0.006287159116855516
0.256,-0.008599731579500254
0.258,0.014587061278888473
0.26,0.006742564330389078
0.262,0.0004968447362595868
0.264,0.009118776843120712
0.266,0.0031820870068454375
0.268,-0.017095277704292474
0.27,-0.0038282207009982415
0.272,0.006393882197643887
0.274,-0.0038604586359666884
0.276,0.021856049178394045
0.278,0.037451783759476186
0.28,0.030105454530357807
0.282,0.0405555883032111
0.284,0.05002098860121327
0.286,0.0436999873015977
0.288,0.04023405015444782
0.29,0.06088784867446832
0.292,0.050706513640136744
0.294,0.04938654701931631
0.296,0.04858423645964616
0.298,0.04538135484252159
0.3,0.015642688290556084
0.302,0.017009017717417644
0.304,0.014315513940525245
0.306,-0.005039274057565622
0.308,0.004408519115642242
0.31,0.01801383003725284
0.312,0.005001170483544375
0.314,0.01322264574150759
0.316,0.022589065943392564
0.318,0.01558584610871761
0.32,0.01244813716263669
0.322,0.031654469821688576
0.324,0.030491606784294
0.326,0.027522018414405998
0.328,0.04147016541845251
0.33,0.03710622449585014
0.332,0.019601767626278233
0.334,0.014169328121350582
0.336,0.015496982073895148
0.338,-0.009218225686295121
0.34,-0.005964970146347174
0.342,0.010670149659111823
0.344,-0.005579074923832733
0.346,0.0033723435507834825
0.348,0.01759250250127898
0.35,0.007400916936640479
0.352,0.007255060731325356
0.354,0.025054389327900082
0.356,0.030085233921910207
0.358,0.034674688645132505
0.36,0.0575286929455812
0.362,0.07944031920240636
0.364,0.06924642454266383
0.366,0.08423871426634774
0.368,0.09873440539952213
0.37,0.07409040217367653
0.372,0.0774125812287158
0.374,0.0944557332036321
0.376,0.07290254590216051
0.378,0.06826535220137192
0.38,0.09536281903679834
0.382,0.07495719840664851
0.384,0.06046201168805707
0.386,0.09236031216678503
0.388,0.07967969334341152
0.39,0.055424945980808736
0.392,0.10192506486801885
0.394,0.09589542711647657
0.396,0.07449387693423014
0.398,0.11967304238909418
0.4,0.1431146294943069
0.402,0.08545210760510852
0.404,0.17709875136410966
0.406,0.14799289949896516
0.408,0.1236355670591099
0.41,0.1643470714638139
0.412,0.13467088207002662
0.414,0.1015532587192818
0.416,0.12156466400456671
0.418,0.11390078473507197
0.42,0.1015420507791555
0.422,0.13034887011128407
0.424,0.1549326939489823
0.426,0.14493009743961363
0.428,0.1625846162600502
0.43,0.16955970384096283
0.432,0.14678597305864066
0.434,0.14648857410301663
0.436,0.16625336027348117
0.438,0.18343176442593795
0.44,0.22630245410938274
0.442,0.3137367605793736
0.444,0.3999641429612283
0.446,0.49824236496364716
0.448,0.638023661443372
0.45,0.7620809563873564
0.452,0.8826677444883548
0.454,1.0114980491439303
0.456,1.0995303703718464
0.458,1.1283886451751692
0.46,1.1139145569742475
0.462,1.0170692813913143
0.464,0.8454799106756145
0.466,0.6314901052642375
0.468,0.4025035616233335
0.47,0.16567222802133497
0.472,-0.013841910534253057
0.474,-0.14576323508468347
0.476,-0.21607010551989156
0.478,-0.2470702222389192
0.48,-0.23705421785451472
0.482,-0.22417371460812832
0.484,-0.21336628090344376
0.486,-0.2060781903633273
0.488,-0.1963664790403931
0.49,-0.1929639742494569
0.492,-0.1777444673562691
0.494,-0.1405124051858546
0.496,-0.11812665049933785
0.498,-0.08741543498495999
0.5,-0.05240859493850568
0.502,-0.050157895269440415
0.504,-0.039388187822846775
0.506,-0.027928901875930428
0.508,-0.03315772364209957
0.51,-0.011730929002973829
0.512,-0.004124134153592789
0.514,0.01788995698407852
0.516,0.022394791155884147
0.518,0.030217200869724466
0.52,0.02689516309889933
0.522,0.01832861104323502
0.524,0.008108476123703119
0.526,0.006519817579680734
0.528,0.001898450011292927
0.53,-0.0012596330617204892
0.532,0.006925443641519516
0.534,0.0022236153128260116
0.536,-0.0008574772766276588
0.538,0.0020447490446068085
0.54,-0.0013358382657243316
0.542,-0.0016721596980328944
0.544,0.004908161081814647
0.546,0.00893259623425943
0.548,0.009330677984261503
0.55,0.009293674204564535
0.552,0.00958545248566517
0.554,0.0016666904158378025
0.556,-0.002568239022101909
0.558,0.002986227442297973
0.56,-0.0002564748131472701
0.562,0.004283843203936736
0.564,0.008810641815278198
0.566,0.01231424626394632
0.568,0.0009884752525091635
0.57,0.010861997305390359
0.572,0.008276884398276355
0.574,0.007361778774472173
0.576,0.024948587808555998
0.578,0.037131915507665376
0.58,0.03745855954026848
0.582,0.05194440016154123
0.584,0.054752976117727545
0.586,0.039513421988977254
0.588,0.045649125957557504
0.59,0.053735055720579454
0.592,0.04665019728033672
0.594,0.07063047001705589
0.596,0.10391920286525715
0.598,0.08232270354319285
0.6,0.13382284300824232
0.602,0.11366374962140978
0.604,0.11263121178942172
0.606,0.1285327653942423
0.608,0.12035963970898217
0.61,0.13798119261688171
0.612,0.16426585175765057
0.614,0.1832624993666042
0.616,0.21039190075828015
0.618,0.23009333142226576
0.62,0.24246021703424128
0.622,0.2539009304534215
0.624,0.25860619515319777
0.626,0.2714718383266609
0.628,0.28335148672961485
0.63,0.2920866247864928
0.632,0.30985519279245205
0.634,0.31229230129718333
0.636,0.31101000843512533
0.638,0.31117934151518173
0.64,0.3018290129821298
0.642,0.29772619829448493
0.644,0.30186385346898115
0.646,0.309183736870671
0.648,0.31611819711230504
0.65,0.3321646570931445
0.652,0.33483753583715914
0.654,0.33543540746351724
0.656,0.3278906762339777
0.658,0.3173179185119478
0.66,0.29760954744913126
0.662,0.28289115989514635
0.664,0.2673022653393389
0.666,0.24788824783820337
0.668,0.2356584189393755
0.67,0.2199428472575766
0.672,0.20601193049210645
0.674,0.18905723789225623
0.676,0.179459239165839
0.678,0.15846790327754137
0.68,0.1397316262747227
0.682,0.12106443166475518
0.684,0.08562056458363526
0.686,0.06073504674646632
0.688,0.025452983369133857
0.69,-0.00534824357884958
0.692,-0.031166571132039286
0.694,-0.055356709215920674
0.696,-0.07281683740620132
0.698,-0.0941611067882233
0.7,-0.10851388073550117
0.702,-0.13300854909457072
0.704,-0.15182563834134816
0.706,-0.1709190375260472
0.708,-0.19119609259497378
0.71,-0.1972060599161258
0.712,-0.20895491344900982
0.714,-0.2083184953086921
0.716,-0.21235049057155578
0.718,-0.21402675378090008
0.72,-0.21938945543700153
0.722,-0.22550293239124442
0.724,-0.2290851063804075
0.726,-0.2364324208582291
0.728,-0.23533213703176326
0.73,-0.23340323239637015
0.732,-0.23715679417531996
0.734,-0.22859086209937293
0.736,-0.23439204996466728
0.738,-0.233281124394264
0.74,-0.23647198415781026
0.742,-0.23631899128355766
0.744,-0.2420227143954631
0.746,-0.2384641501996964
0.748,-0.24121233776151732
0.75,-0.24266153066559878
0.752,-0.23987907072652326
0.754,-0.23881562596855826
0.756,-0.23271733802550199
0.758,-0.22042977541831635
0.76,-0.2075300526179629
0.762,-0.18942304992633904
0.764,-0.1755183943614575
0.766,-0.16454262424377458
0.768,-0.1577580620285016
0.77,-0.1587542625013217
0.772,-0.1586708759390263
0.774,-0.15861341182175004
0.776,-0.15326218790970492
0.778,-0.14637958596105122
0.78,-0.12922069379899515
0.782,-0.11751551891978625
0.784,-0.10514205596349405
0.786,-0.09564870628274641
0.788,-0.09135823653004337
0.79,-0.09002593984230796
0.792,-0.09300083163787008
0.794,-0.08111399442750551
0.796,-0.08806570268910796
0.798,-0.08585432088451649
0.8,-0.058997848104422074
0.802,-0.0956835435020377
0.804,-0.05926048305674182
0.806,-0.07458587636741154
0.808,-0.08410833081647465
0.81,-0.06342674428609497
0.812,-0.07220555463060131
0.814,-0.07002625441733734
0.816,-0.05869443985069151
0.818,-0.0537871634580153
0.82,-0.06096129329025065
0.822,-0.04373678026115989
0.824,-0.04209746397822414
0.826,-0.0387821489415614
0.828,-0.02359288375287953
0.83,-0.01492932447880712
0.832,-0.01335562688075371
0.834,-0.008788938857937696
0.836,-0.006819759755413235
0.838,-0.01714774472249702
0.84,-0.018104230109123015
0.842,-0.014118099303898466
0.844,-0.015793085584337105
0.846,-0.004576172000488364
0.848,0.00798870182295717
0.85,0.013624693377348661
0.852,0.021214187816022724
0.854,0.023561108246494274
0.856,0.02438256135366765
0.858,0.020654937712276628
0.86,0.026036708924719036
0.862,0.031186477421830335
0.864,0.03670052474269637
0.866,0.0504670601654587
0.868,0.0563426568490351
0.87,0.06237928885397673
0.872,0.06137873371377105
0.874,0.06119719804226315
0.876,0.05009620288071683
0.878,0.04820554918381104
0.88,0.03549130304094731
0.882,0.033859710818490596
0.884,0.026571461613312492
0.886,0.021697280899534557
0.888,0.023716068877228654
0.89,0.02175165082685311
0.892,0.02056552700744543
0.894,0.034239486150091106
0.896,0.02807973557405618
0.898,0.04289745918298307
0.9,0.043670122370316304
0.902,0.052683360268047146
0.904,0.052689679075900636
0.906,0.06641822046672453
0.908,0.06348824718004258
0.91,0.07734000188147683
0.912,0.07550994213088978
0.914,0.08212304692065629
0.916,0.08049135100657218
0.918,0.0753195688065243
0.92,0.0771621003748831
0.922,0.07292371326626462
0.924,0.07105836422472761
0.926,0.0831341625091009
0.928,0.07961236338832403
0.93,0.08777633705740144
0.932,0.09053200592308287
0.934,0.08108809357883309
0.936,0.0804427200745736
0.938,0.06590191381210675
0.94,0.05947747221819857
0.942,0.051688085781449726
0.944,0.04183476473240715
0.946,0.03846226300107927
0.948,0.029592221085209074
0.95,0.017253904877983253
0.952,0.009022588273970034
0.954,0.0027877465761327845
0.956,-0.011405308570835321
0.958,-0.0060664480121547576
0.96,-0.005248901908246493
0.962,-0.01512575856226126
0.964,-0.008284398115883744
0.966,-0.02069071388113748
0.968,-0.03831718944175034
0.97,-0.04249679830874115
0.972,-0.053439711034415874
0.974,-0.05279219501753483
0.976,-0.050393663207885755
0.978,-0.02920665200075037
0.98,-0.03946936567639712
0.982,-0.02963525045972733
0.984,-0.04140083215648646
0.986,-0.052352035017729295
0.988,-0.061999438672796656
0.99,-0.04697560355069009
0.992,-0.03586644509992708
0.994,-0.012020579024839259
0.996,0.015408963626140323
0.998,0.00970599654986668
1.0,-0.010356216210705956
1.0,-0.05162776736685102
1.002,-0.0997729415173758
1.004,-0.13951788273691929
1.006,-0.14064886217614828
1.008,-0.1062627705393217
1.01,-0.04492396125417121
1.012,0.020818418016706513
1.014,0.08728955960231374
1.016,0.08406478974841498
1.018,0.05313706286197481
1.02,-0.0040683024104194625
1.022,-0.0957722734893202
1.024,-0.13282807652162246
1.026,-0.13608720071608496
1.028,-0.08458294689708405
1.03,-0.0037950453550367786
1.032,0.08974590370455035
1.034,0.15099689900229543
1.036,0.13203169977968607
1.038,0.12024466527591275
1.04,0.005995895012515172
1.042,-0.042354063765572984
1.044,-0.09371856732986496
1.046,-0.059902973030355404
1.048,-0.0037716592105170575
1.05,0.10751433526384636
1.052,0.18690145136150782
1.054,0.23063365990448004
1.056,0.2193881374654023
1.058,0.1592610391786893
1.06,0.07017303090028963
1.062,0.011469563045960158
1.064,-0.02148626490744456
1.066,0.02856135266473676
1.068,0.08693663385383392
1.07,0.20549475536524478
1.072,0.27120174794625557
1.074,0.300709220812988
1.076,0.28499621657570845
1.078,0.2100622368747882
1.08,0.10997615839029361
1.082,0.0626839530572576
1.084,0.006953226355952551
1.086,0.04430543508587399
1.088,0.10968515312416989
1.09,0.18197672812863175
1.092,0.2515064093205439
1.094,0.28220201925287636
1.096,0.23648650846285646
1.098,0.18806033496656796
1.1,0.0875143671249895
1.102,0.018233745553009516
1.104,-0.01283903124209905
1.106,0.005614495315570925
1.108,0.046926791876631305
1.11,0.14838097888066276
1.112,0.17684505901889366
1.114,0.21840639035068635
1.116,0.17387158167489933
1.118,0.10373217217541873
1.12,0.0033772423696795933
1.122,-0.06345589298234632
1.124,-0.11554200786227996
1.126,-0.07976093033787984
1.128,-0.03958198446727161
1.13,0.06878020497721929
1.132,0.1033492066295112
1.134,0.14777746214174342
1.136,0.09573612630669164
1.138,0.02008167180139598
1.14,-0.09425031501171093
1.142,-0.1583243401886966
1.144,-0.22061437252432384
1.146,-0.18338178130107982
1.148,-0.11627439177481069
1.15,-0.0337307122208385
1.152,0.031345467802330315
1.154,0.07297943622631062
1.156,0.011919715591555113
1.158,-0.054682786301535384
1.16,-0.1414920128717878
1.162,-0.23235080211672043
1.164,-0.24924331133468688
1.166,-0.19609174439359178
1.168,-0.15889401510057302
1.17,-0.03015136135738707
1.172,0.012725952270158148
1.174,0.033787803798596874
1.176,-0.0024919555580097787
1.178,-0.07748202853712687
1.18,-0.17604964063827316
1.182,-0.22570097173573617
1.184,-0.24801822483372685
1.186,-0.20302020804863474
1.188,-0.13141974590442732
1.19,-0.03706987786246172
1.192,0.014993409109428073
1.194,0.03627566292343483
1.196,-0.003106842650709736
1.198,-0.06376975769814282
1.2,-0.14802089478354447
1.202,-0.18845643578712093
1.204,-0.18922552642141288
1.206,-0.16358155531227672
1.208,-0.07671100562015667
1.21,-0.010932656517097867
1.212,0.015684529582361925
1.214,0.03328414679191982
1.216,-0.03277066425994456
1.218,-0.1129362862091739
1.22,-0.17439619042669646
1.222,-0.22942832432644525
1.224,-0.22204609345748105
1.226,-0.16036792568476646
1.228,-0.08846362294184237
1.23,0.0028163148489132057
1.232,0.029574568496974072
1.234,0.05799895660105105
1.236,-0.033498759098544134
1.238,-0.08240322508412148
1.24,-0.17512262599540357
1.242,-0.22120438566765152
1.244,-0.21118546502120047
1.246,-0.15726248502147877
1.248,-0.08329979602912232
1.25,0.001716914710643354
1.252,0.03661542609637799
1.254,0.04220773816882554
1.256,-0.03126737077485661
1.258,-0.09426335962647794
1.26,-0.17065958187205169
1.262,-0.23142772014034288
1.264,-0.1877403068872089
1.266,-0.15296534147688143
1.268,-0.07035731609544775
1.27,0.024581342281533188
1.272,0.04661646031404878
1.274,0.037011571299853795
1.276,-0.011665227029110452
1.278,-0.10983332673034076
1.28,-0.19032923002180696
1.282,-0.22776683036897943
1.284,-0.23359724425157039
1.286,-0.17728597801744903
1.288,-0.09815481286359706
1.29,-0.02481776013552747
1.292,0.021958584626023556
1.294,0.008452420746137647
1.296,-0.029506762561981797
1.298,-0.11379605872497102
1.3,-0.1870351711613113
1.302,-0.2155048834238512
1.304,-0.21602243490012718
1.306,-0.1696863522572538
1.308,-0.07575111123392123
1.31,-0.02783669831973116
1.312,0.018677705672141515
1.314,0.006426409349128937
1.316,-0.05600156897376399
1.318,-0.1355183033650696
1.32,-0.19994919312453138
1.322,-0.2467548420873799
1.324,-0.21970015777736016
1.326,-0.1669379705209342
1.328,-0.07793506025520315
1.33,-0.0005935064683524629
1.332,0.025928527502469226
1.334,0.021117826657877262
1.336,-0.0472249839943504
1.338,-0.14262452135074125
1.34,-0.20045558431772154
1.342,-0.24692667089150486
1.344,-0.2260987842797027
1.346,-0.14493819516029963
1.348,-0.057653164117407736
1.35,0.016233803243352506
1.352,0.07527278460559753
1.354,0.04019321765686382
1.356,-0.01609216246531304
1.358,-0.1075544853501397
1.36,-0.18161722650587983
1.362,-0.2266217921299087
1.364,-0.2073069523246769
1.366,-0.13785310736531597
1.368,-0.07225600886307575
1.37,0.009659125607438085
1.372,0.04916927123391004
1.374,0.007172750400378803
1.376,-0.02161290403678433
1.378,-0.10893002949313833
1.38,-0.16780341115569
1.382,-0.17431245110557375
1.384,-0.14553385972558894
1.386,-0.0860126822052716
1.388,0.0182315406141333
1.39,0.0561870791683763
1.392,0.10054968157910882
1.394,0.05336971027875977
1.396,-0.00533760944494404
1.398,-0.09642594799551235
1.4,-0.1580041884078531
1.402,-0.20152564034090797
1.404,-0.154234089082022
1.406,-0.1310487222013364
1.408,-0.021262469514028427
1.41,0.010409125011722054
1.412,0.042255798112614755
1.414,0.005246343524405524
1.416,-0.063815192192964
1.418,-0.1539585884052274
1.42,-0.2197242121444734
1.422,-0.2597992112374771
1.424,-0.2178254490397655
1.426,-0.18183018725849345
1.428,-0.06490713565345643
1.43,-0.02101915248933031
1.432,0.020624855229655955
1.434,-0.005835487607081692
1.436,-0.06633900371276215
1.438,-0.1693198938956033
1.44,-0.21225366673096255
1.442,-0.2649259833326104
1.444,-0.2310902541739967
1.446,-0.15467891621742907
1.448,-0.08661537495899908
1.45,-0.0039015411681043366
1.452,0.014524976159678803
1.454,-0.01668535800879194
1.456,-0.0865012629888274
1.458,-0.1760313104468119
1.46,-0.24147745778654356
1.462,-0.2711299320171803
1.464,-0.22277815070418253
1.466,-0.17177094167190435
1.468,-0.06366018070181767
1.47,-0.01781936356329295
1.472,0.0016303574627357061
1.474,-0.03521590949165851
1.476,-0.11869727626725196
1.478,-0.20532365467925243
1.48,-0.2582015790405472
1.482,-0.27726388934741
1.484,-0.22298752134866254
1.486,-0.14578443162981183
1.488,-0.04760990679529025
1.49,0.006026150124487586
1.492,0.02880171073209056
1.494,-0.017171862875826175
1.496,-0.09796275702599407
1.498,-0.18479503198826586
1.5,-0.24750628861820198
1.502,-0.2764144075296362
1.504,-0.24437551283508832
1.506,-0.17608283551214346
1.508,-0.12094442255236486
1.51,-0.05055880281585835
1.512,-0.036049943208828164
1.514,-0.055314258219974655
1.516,-0.07058793884493944
1.518,-0.09317792669972609
1.52,-0.06555869269369244
1.522,0.019148548437078174
1.524,0.16249627785800436
1.526,0.32676383633369405
1.528,0.5187180170055771
1.53,0.6486413412322634
1.532,0.7458028016769964
1.534,0.7538780874627152
1.536,0.7118559077136544
1.538,0.6302186571934285
1.54,0.5273362977905786
1.542,0.43742146793942516
1.544,0.36926105334762566
1.546,0.2853950455055552
1.548,0.23536955353354924
1.55,0.12119218745650275
1.552,0.0267680547795945
1.554,-0.12990721222964288
1.556,-0.24489902746632233
1.558,-0.343213581381221
1.56,-0.40463394598464375
1.562,-0.34781682765102184
1.564,-0.2885927320573841
1.566,-0.16900750046132249
1.568,-0.047593201441788135
1.57,0.007632226857919522
1.572,0.016660743790742224
1.574,-0.019697810553455226
1.576,-0.11552738493893859
1.578,-0.20344114151166198
1.58,-0.2402507149520353
1.582,-0.25621823792942344
1.584,-0.19861405863999498
1.586,-0.10718928429343486
1.588,-0.03492053174611033
1.59,0.02175842733612085
1.592,0.022439399661197592
1.594,-0.0359820727507078
1.596,-0.10197637556205369
1.598,-0.19874193061035716
1.6,-0.22619868112082328
1.602,-0.2287843781901897
1.604,-0.19597022029136862
1.606,-0.08596639081049176
1.608,-0.053015470701748
1.61,0.003707019275267192
1.612,-0.002973532802191232
1.614,-0.07452957631367832
1.616,-0.1353439349309649
1.618,-0.20589199937330024
1.62,-0.24142611894753138
1.622,-0.2187758674470891
1.624,-0.15264962391170286
1.626,-0.07562813309563379
1.628,0.012527557362696132
1.63,0.038707156780241524
1.632,0.03968739521813252
1.634,-0.02576335464317936
1.636,-0.10840889655996551
1.638,-0.17102677255526078
1.64,-0.21800535553615025
1.642,-0.20004355616498232
1.644,-0.1332431180874477
1.646,-0.054606003926349615
1.648,0.020788813203434058
1.65,0.06709190706057593
1.652,0.05254525763683894
1.654,-0.014080795627546433
1.656,-0.08218341028431393
1.658,-0.1581438579418091
1.66,-0.2055016965010641
1.662,-0.16164733858779912
1.664,-0.11442903311878085
1.666,-0.023660611015640497
1.668,0.06278784051643399
1.67,0.09350811728681156
1.672,0.07095254684855998
1.674,0.01745605696729256
1.676,-0.07647068534728164
1.678,-0.15384629475064535
1.68,-0.1841561412031443
1.682,-0.15836322698357985
1.684,-0.10692188249861469
1.686,-0.0016417645559039017
1.688,0.06447357069979258
1.69,0.09727212385425692
1.692,0.0785286454162489
1.694,0.025487763079569827
1.696,-0.07474600013024679
1.698,-0.11023560068969102
1.7,-0.14940707250208018
1.702,-0.09841707276605474
1.704,-0.029738457792470037
1.706,0.07184860218212172
1.708,0.13511174794640618
1.71,0.17136935830260086
1.712,0.13838809479056652
1.714,0.07726803477128182
1.716,-0.008788918011804325
1.718,-0.05056577249073322
1.72,-0.08635865471696635
1.722,-0.007575062271516301
1.724,0.041659705052554764
1.726,0.15514883544912966
1.728,0.22902119196243192
1.73,0.23626593827745457
1.732,0.21634469594414005
1.734,0.16068598081164412
1.736,0.04501185056873853
1.738,0.022358253505139314
1.74,-0.00098859480221348
1.742,0.023536284123041876
1.744,0.12447750420613662
1.746,0.20475432077168054
1.748,0.24619977974521826
1.75,0.2895836876627647
1.752,0.232579364276216
1.754,0.1501868980525515
1.756,0.07892787999573321
1.758,0.01096554980262218
1.76,-0.010661915752573994
1.762,0.04678315607243911
1.764,0.11043819746795067
1.766,0.20179435022328326
1.768,0.25161611610352447
1.77,0.2672327165870706
1.772,0.20598671242583705
1.774,0.11893469425303042
1.776,0.029496754655234943
1.778,-0.05147769067362442
1.78,-0.06893264776589887
1.782,-0.020241509540907556
1.784,0.03108245531358854
1.786,0.13540890264719005
1.788,0.16828936715978948
1.79,0.18443234121865498
1.792,0.11356156905790356
1.794,0.04265206505711036
1.796,-0.07742512389916081
1.798,-0.11919001109592584
1.8,-0.15213068080763437
1.802,-0.09980871776212306
1.804,-0.026074082006155925
1.806,0.05658837487426453
1.808,0.09700713071396984
1.81,0.11225620924205207
1.812,0.03488590631344639
1.814,-0.04236536004746503
1.816,-0.13637125784612739
1.818,-0.1914234067420214
1.82,-0.21240971066158534
1.822,-0.12795392192685692
1.824,-0.08095432631734159
1.826,0.022076344287303776
1.828,0.08139743189026252
1.83,0.05701229332183695
1.832,0.014723888023825597
1.834,-0.0672025458919631
1.836,-0.17528272212697651
1.838,-0.21693748950516184
1.84,-0.2180071003362015
1.842,-0.17903879686837718
1.844,-0.08669034935087276
1.846,-0.006722656605275622
1.848,0.04143486840906496
1.85,0.04141945636605423
1.852,-0.020976783184973695
1.854,-0.0832863364669471
1.856,-0.20181842556646543
1.858,-0.2145245917669657
1.86,-0.23002681954384677
1.862,-0.1735889819319758
1.864,-0.07738956822166583
1.866,0.006151900250059053
1.868,0.048151309858884286
1.87,0.05796326376426345
1.872,0.0036498816096516046
1.874,-0.09304603169779337
1.876,-0.1567463936815419
1.878,-0.2173929123981151
1.88,-0.20886302638873408
1.882,-0.15122452348574744
1.884,-0.07032122313328097
1.886,0.01708533698228801
1.888,0.05460569373589453
1.89,0.061405329037867835
1.892,-0.0053610233521757065
1.894,-0.08219285317106681
1.896,-0.16540885972380687
1.898,-0.20419271216683635
1.9,-0.20537182722688502
1.902,-0.13580547986191413
1.904,-0.0593032479768848
1.906,0.02184144933187478
1.908,0.07456334447303742
1.91,0.0555237548167237
1.912,0.012572186660011395
1.914,-0.07373313632581265
1.916,-0.15173917248192312
1.918,-0.18791541999678185
1.92,-0.17751864131053086
1.922,-0.13952177013003417
1.924,-0.03134519487778426
1.926,0.010124991620363136
1.928,0.06429878194246332
1.93,0.05666210606420749
1.932,-0.015471284932787256
1.934,-0.07511549447727647
1.936,-0.1518759166801351
1.938,-0.1850079776641367
1.94,-0.16738467305080895
1.942,-0.11264129911886085
1.944,-0.029382627398756075
1.946,0.023026704096985585
1.948,0.07246227576331868
1.95,0.03524161935900441
1.952,-0.01507225901545552
1.954,-0.09545124412785598
1.956,-0.15764032834322209
1.958,-0.1895246236655388
1.96,-0.15256334568613866
1.962,-0.09491099054003968
1.964,-0.009766753191826552
1.966,0.06339461481807131
1.968,0.07401014514744912
1.97,0.06241404389177475
1.972,-0.03423821919708466
1.974,-0.09969495998299208
1.976,-0.1949997402165809
1.978,-0.21748272929748724
1.98,-0.18267169933972213
1.982,-0.1422617936378481
1.984,-0.018950294001663814
1.986,0.015355684033048558
1.988,0.07041786600523826
1.99,0.028629833948193142
1.992,-0.027119504729222622
1.994,-0.11586007320439091
1.996,-0.16752162109493346
1.998,-0.1949376697976351
2.0,-0.15069484985838769
2.002,-0.07841586958654707
2.004,0.012813716795095435
2.006,0.07754581379950759
2.008,0.1112359877753306
2.01,0.0658696348932801
2.012,0.01221721221822271
2.014,-0.08377564423918332
2.016,-0.14052963135629035
2.018,-0.16403110125317621
2.02,-0.131032054037127
2.022,-0.06357379159122299
2.024,0.018570697629845555
2.026,0.08071867730712415
2.028,0.1004515999233297
2.03,0.0675294532735525
2.032,0.008311801003863608
2.034,-0.0769466656899738
2.036,-0.12903089109785928
2.038,-0.1409022618223456
2.04,-0.11852949300614178
2.042,-0.03182467348981422
2.044,0.03682608569377143
2.046,0.09804940245868221
2.048,0.13379874151700633
2.05,0.07625554914070541
2.052,0.03550849458944651
2.054,-0.05782956904534762
2.056,-0.11868776455604585
2.058,-0.1315797116851275
2.06,-0.1035647778057934
2.062,-0.049316429575310516
2.064,0.04384226593521864
2.066,0.078745896283494
2.068,0.09917708760351068
2.07,0.04431122257667426
2.072,-0.028396974285674323
2.074,-0.13975717432299903
2.076,-0.19799005394323205
2.078,-0.23566719386806007
2.08,-0.19801437787350162
2.082,-0.1304825612056687
2.084,-0.037496470426935165
2.086,0.027265579227029643
2.088,0.044485951760158564
2.09,0.019409240438912397
2.092,-0.06264441568132506
2.094,-0.1462119422100476
2.096,-0.19993025109533824
2.098,-0.22003214488639103
2.1,-0.16554581872892293
2.102,-0.08971386625745849
2.104,0.011956767097648272
2.106,0.05769407777687035
2.108,0.07720171679007731
2.11,0.010682374538462583
2.112,-0.07666325871182701
2.114,-0.18975773634388166
2.116,-0.24225261257959857
2.118,-0.2733215930642518
2.12,-0.21243155773201428
2.122,-0.11969547733820637
2.124,-0.03233872275149551
2.126,0.04127248385719378
2.128,0.05517850743804905
2.13,-3.96935541178551e-05
2.132,-0.08379215787055598
2.134,-0.16043143218943284
2.136,-0.23646986235835057
2.138,-0.22712931333901967
2.14,-0.17244777366949873
2.142,-0.10027627959516108
2.144,-0.006082081138170058
2.146,0.04527949988886532
2.148,0.0333116121854616
2.15,-0.022440621728569178
2.152,-0.1068950804446592
2.154,-0.20149413958178855
2.156,-0.26321441454446676
2.158,-0.24382369437959692
2.16,-0.22021703413002572
2.162,-0.12782052974708302
2.164,-0.05164894635368047
2.166,-0.014554677048198645
2.168,-0.021606132602199055
2.17,-0.06461992201844555
2.172,-0.14253620139306805
2.174,-0.21050760488576023
2.176,-0.21028416355054907
2.178,-0.1821633598353401
2.18,-0.07637875516886056
2.182,0.06844271889163969
2.184,0.20736829010359661
2.186,0.32820605232358907
2.188,0.4117865167827596
2.19,0.45525791316654823
2.192,0.4708177731742361
2.194,0.49568532425057465
2.196,0.5512324011178528
2.198,0.6061845158603626
2.2,0.6997984589255601
2.202,0.7637877486320402
2.204,0.7595626838783892
2.206,0.700004092593938
2.208,0.5422255944121444
2.21,0.3270610306411265
2.212,0.09292294660586009
2.214,-0.11115725924263498
2.216,-0.24188555809927662
2.218,-0.2967619376986722
2.22,-0.24981411739723194
2.222,-0.1615892855949004
2.224,-0.07402834526494212
2.226,-0.001367785352691586
2.228,0.01609804449621463
2.23,-0.037451131467262734
2.232,-0.10386441761573709
2.234,-0.1539977937847224
2.236,-0.22285587511729468
2.238,-0.18615035050371578
2.24,-0.12993656274612406
2.242,-0.08051857115134091
2.244,0.010418262017937904
2.246,0.025455452792933184
2.248,0.001315400019596164
2.25,-0.05757638109963027
2.252,-0.12822287848498992
2.254,-0.2018740373310333
2.256,-0.22594366075666697
2.258,-0.18091494908821157
2.26,-0.1451438117231734
2.262,-0.03428449932383641
2.264,0.009861764173452501
2.266,0.05476262521067454
2.268,0.011488532604801356
2.27,-0.03416614844410102
2.272,-0.12398516579028118
2.274,-0.1851693297039029
2.276,-0.21131052597787542
2.278,-0.16999682293387322
2.28,-0.12675517239985476
2.282,-0.01536751826468831
2.284,0.03709567157558683
2.286,0.07069804162271301
2.288,0.045373550606292896
2.29,-0.013605201582078112
2.292,-0.10708264939260566
2.294,-0.16742887954229693
2.296,-0.19136056016369696
2.298,-0.16907440512542563
2.3,-0.10070597954708187
2.302,0.007785290651012093
2.304,0.04799577452008009
2.306,0.11325006014569594
2.308,0.06223025624730878
2.31,0.005925154276761955
2.312,-0.09186585001173579
2.314,-0.15312530657414775
2.316,-0.19961305933703083
2.318,-0.15147195977995404
2.32,-0.09088120566831505
2.322,0.009758867345582718
2.324,0.08572350912876173
2.326,0.125807283757227
2.328,0.0895094840369478
2.33,0.03513281229027243
2.332,-0.057041734837760386
2.334,-0.13683814538113873
2.336,-0.14025852908267608
2.338,-0.12664625539161484
2.34,-0.04446562463243128
2.342,0.05795605847152908
2.344,0.11335131228810472
2.346,0.159008064271185
2.348,0.11572320277693185
2.35,0.056488787100073684
2.352,-0.0377606484703789
2.354,-0.08989680911923234
2.356,-0.11539191252169698
2.358,-0.057197891944163984
2.36,0.0037219131189596254
2.362,0.12478829205510884
2.364,0.17460079324570696
2.366,0.20923955398926805
2.368,0.17593089726412128
2.37,0.10023524772701271
2.372,0.02055749421816475
2.374,-0.03284330399083306
2.376,-0.04529214024801074
2.378,0.015666390231789208
2.38,0.08913496634298253
2.382,0.2086018214992169
2.384,0.25932371905615126
2.386,0.293328706567266
2.388,0.25141478030805026
2.39,0.1752123819719661
2.392,0.0846640149132771
2.394,0.03416081777587188
2.396,0.015523202072891228
2.398,0.06950723321102557
2.4,0.15688950901081616
2.402,0.25217063534470535
2.404,0.3248739795236302
2.406,0.3348181272890128
2.408,0.30708097270937995
2.41,0.21976380558870007
2.412,0.12022622947817756
2.414,0.0917405970809538
2.416,0.03571214038442765
2.418,0.11483628438005913
2.42,0.1870135444926973
2.422,0.2702894193464535
2.424,0.3380361032484315
2.426,0.35480584735566123
2.428,0.29455732883672653
2.43,0.21672967978710425
2.432,0.13676041771571362
2.434,0.04885442347316401
2.436,0.05573165268643966
2.438,0.07760642900016049
2.44,0.1528329860191394
2.442,0.21708503536161733
2.444,0.261789090343479
2.446,0.25301118750074536
2.448,0.18018550389190457
2.45,0.10933999910451744
2.452,0.0008754548175016049
2.454,-0.04240720802121159
2.456,-0.05537486819232465
2.458,-0.006469002463697471
2.46,0.06180439684574543
2.462,0.13077302019544934
2.464,0.16887563755608803
2.466,0.1458531800868314
2.468,0.08756647628862319
2.47,-0.005631965549604699
2.472,-0.08896369022469093
2.474,-0.13095889698934324
2.476,-0.1345007556186086
2.478,-0.06797463859128425
2.48,0.006568258256615241
2.482,0.07510295295831534
2.484,0.1279952952705695
2.486,0.09933754154362939
2.488,0.03447628055637011
2.49,-0.03938768799175424
2.492,-0.1406496355884322
2.494,-0.18121570746615764
2.496,-0.1618255289615108
2.498,-0.12429509251521967
2.5,-0.028276795737166304
2.502,0.04849738544805796
2.504,0.08258618945886533
2.506,0.07542798523231156
2.508,0.012642557735270768
2.51,-0.07210014476432171
2.512,-0.15847954179967885
2.514,-0.18929253413918248
2.516,-0.18662671327685937
2.518,-0.11621281085430471
2.52,-0.03166394166394769
2.522,0.053205919469090326
2.524,0.09491319519520008
2.526,0.08351055215078118
2.528,0.016975767936283973
2.53,-0.06081998657870487
2.532,-0.157536336861486
2.534,-0.1904538965005586
2.536,-0.1703934452963598
2.538,-0.13290261322648023
2.54,-0.01903863998649156
2.542,0.04610041584216061
2.544,0.07838871912594397
2.546,0.07837261943030462
2.548,0.011988219940589098
2.55,-0.08222476000805173
2.552,-0.13387285059018458
2.554,-0.17630045629755572
2.556,-0.15643481509253096
2.558,-0.07723054531148299
2.56,-0.002058420786776142
2.562,0.07033889244905163
2.564,0.10312182764436152
2.566,0.07183973125760063
2.568,0.012226721023550683
2.57,-0.08404659674485948
2.572,-0.13057427203864883
2.574,-0.17602008914383874
2.576,-0.12910961119676928
2.578,-0.06455471899231877
2.58,0.018361147702155762
2.582,0.08853640778049592
2.584,0.11174916797678612
2.586,0.07332954624856904
2.588,0.013655184741086512
2.59,-0.08634711321283184
2.592,-0.1367673021916745
2.594,-0.17690611368165726
2.596,-0.12997178142260682
2.598,-0.0683544951073544
2.6,0.02020477833519406
2.602,0.09331746164150763
2.604,0.11563307676497797
2.606,0.08759843517173872
2.608,0.024909498297850143
2.61,-0.0622610441686612
2.612,-0.13098621582188905
2.614,-0.15436983595834236
2.616,-0.1239563787018201
2.618,-0.0757901246824021
2.62,0.03077734806112375
2.622,0.06711316447601459
2.624,0.11062528101313808
2.626,0.05661308833970575
2.628,0.014346337476982768
2.63,-0.10574466246904334
2.632,-0.1432213762719081
2.634,-0.178385680130203
2.636,-0.15238123600811904
2.638,-0.07037347409358845
2.64,0.014551213105763731
2.642,0.06586344400554486
2.644,0.10733370998147922
2.646,0.05101552180242698
2.648,-0.00870771951719498
2.65,-0.11313182286770736
2.652,-0.16222008875023408
2.654,-0.19438114144133348
2.656,-0.14439973972130773
2.658,-0.07325576206836638
2.66,0.03734485545398945
2.662,0.07511981937023861
2.664,0.12232106432597181
2.666,0.06707427771097423
2.668,-0.026323617403450905
2.67,-0.09505141896498069
2.672,-0.18049052502888466
2.674,-0.1964523669706815
2.676,-0.14280720828076585
2.678,-0.06972404041146633
2.68,0.02268048148582908
2.682,0.0867454804756062
2.684,0.11684780000202027
2.686,0.050302604406898814
2.688,-0.0014291132069348838
2.69,-0.09148016382832236
2.692,-0.1543708729478568
2.694,-0.15278720729972553
2.696,-0.0980454460725186
2.698,-0.0386102657814303
2.7,0.05670147994667098
2.702,0.11360937373453817
2.704,0.09315378545161201
2.706,0.0608737120026495
2.708,-0.014746084238998048
2.71,-0.11213728475779045
2.712,-0.1317696752963455
2.714,-0.12755805195028708
2.716,-0.07490172622623385
2.718,0.029396878596080516
2.72,0.113087836939964
2.722,0.15010985544290867
2.724,0.16137759830407855
2.726,0.08618377911419009
2.728,-0.0040604967496295505
2.73,-0.09242278906914832
2.732,-0.15135237479572655
2.734,-0.15804850048144972
2.736,-0.10216257897530338
2.738,-0.02819642516161749
2.74,0.04804980943060048
2.742,0.08625305792817366
2.744,0.0819584221720903
2.746,-0.0031837913749186825
2.748,-0.07239659234879428
2.75,-0.17457860112003065
2.752,-0.224909377975809
2.754,-0.2042559029722513
2.756,-0.16211193611453756
2.758,-0.0659246765994723
2.76,0.012399630163030311
2.762,0.059742889398731604
2.764,0.040024805089226845
2.766,-0.009025431345389912
2.768,-0.09797902051051305
2.77,-0.1882865955409499
2.772,-0.20279504326214282
2.774,-0.21613977038955
2.776,-0.13387804831333416
2.778,-0.06013531168168861
2.78,0.018767571761857227
2.782,0.046254577008634265
2.784,0.0321900022056917
2.786,-0.04172301341958393
2.788,-0.12879631297085206
2.79,-0.20036396032666942
2.792,-0.24118701468460402
2.794,-0.21548974037776938
2.796,-0.1509215746952366
2.798,-0.06796093599782256
2.8,0.0075270338464965385
2.802,0.03518734244758473
2.804,0.014380289372500948
2.806,-0.05593711879328566
2.808,-0.13345495615766506
2.81,-0.21143200473652538
2.812,-0.2353368535231984
2.814,-0.2032732748012342
2.816,-0.15295151468271637
2.818,-0.03947860398524585
2.82,0.004585710475074477
2.822,0.05577045029799202
2.824,0.01642683320222183
2.826,-0.04582147721039509
2.828,-0.14211211837592075
2.83,-0.21373317277828027
2.832,-0.25771361095959566
2.834,-0.2361268750825727
2.836,-0.17187365584892944
2.838,-0.08995917527034825
2.84,-0.004030534633884333
2.842,0.04292636310879607
2.844,0.03469149607986494
2.846,0.011803970454642362
2.848,-0.04363445450314171
2.85,-0.06293021062934634
2.852,-0.03550776183732388
2.854,0.07181169129271404
2.856,0.21928312442356834
2.858,0.4102700202761028
2.86,0.6138491008587061
2.862,0.7223524451835414
2.864,0.817566101656141
2.866,0.8187361489460132
2.868,0.7356165956904137
2.87,0.6709728920003112
2.872,0.5673504237735877
2.874,0.47880834042042375
2.876,0.4192477098268502
2.878,0.3607534521471196
2.88,0.2741183764919807
2.882,0.16817008356263768
2.884,0.05355372495129228
2.886,-0.10889584749532821
2.888,-0.23550340620194293
2.89,-0.29034192882903376
2.892,-0.33795141360965886
2.894,-0.257115474318807
2.896,-0.16194653711295517
2.898,-0.04359436203854722
2.9,0.04478491680679421
2.902,0.08162626935287087
2.904,0.06632349591523642
2.906,-0.03336452862433052
2.908,-0.10504431267075734
2.91,-0.17907457713165864
2.912,-0.22378899649362888
2.914,-0.1701975897321973
2.916,-0.10127348281254508
2.918,-0.024319752546201383
2.92,0.05452773170910734
2.922,0.07751298392626874
2.924,0.020747547038384533
2.926,-0.029102205556519635
2.928,-0.14095094260368338
2.93,-0.18795990289081665
2.932,-0.2215781079346057
2.934,-0.17190551255663403
2.936,-0.09572479150567453
2.938,-0.007854191729603319
2.94,0.058520440084788065
2.942,0.10059574028554763
2.944,0.0369021793345485
2.946,-0.008339583715909597
2.948,-0.0979829063521978
2.95,-0.1673998815444707
2.952,-0.18090036376052757
2.954,-0.12338334290076328
2.956,-0.08256810359422742
2.958,0.03535747685092673
2.96,0.08563137555603899
2.962,0.1039709179534076
2.964,0.05965565499799748
2.966,0.007931507260222657
2.968,-0.10792283924534751
2.97,-0.1427584724487435
2.972,-0.16162200702443807
2.974,-0.11970854880116566
2.976,-0.030436428279331337
2.978,0.06142156884549528
2.98,0.12683999552466826
2.982,0.14722267590087557
2.984,0.10087347121502714
2.986,0.02598516950657488
2.988,-0.0725096339218966
2.99,-0.13549416138351056
2.992,-0.16279569655557857
2.994,-0.10506685327874914
2.996,-0.05893972867235449
2.998,0.05839508702950376
3.0,0.10781178857289557
3.002,0.11719830086797355
3.004,0.09324337423344567
3.006,0.02035182851310558
3.008,-0.07491688264062427
3.01,-0.10049574267976266
3.012,-0.1183649884605876
3.014,-0.06677641558125534
3.016,0.018373991375780573
3.018,0.10847310815019914
3.02,0.14858435422467056
3.022,0.1763358799589097
3.024,0.11411901165144217
3.026,0.05628990000710413
3.028,-0.029368437526096344
3.03,-0.06691134225500704
3.032,-0.05044360555011247
3.034,-0.01607805399312099
3.036,0.09744679274602967
3.038,0.1604649279512484
3.04,0.22335521761612642
3.042,0.217990383526546
3.044,0.17794379411031166
3.046,0.0951687832557613
3.048,0.02356071150703796
3.05,-0.010270144725502148
3.052,0.003641223604336065
3.054,0.0536323614557417
3.056,0.17176709558029
3.058,0.24436548997678392
3.06,0.300449892689658
3.062,0.3222135295513979
3.064,0.2569441080604234
3.066,0.1805103242227673
3.068,0.1102015467913932
3.07,0.05238748620304119
3.072,0.05804112840511247
3.074,0.11102352002651586
3.076,0.2017207120372876
3.078,0.269461191769977
3.08,0.33128485607247293
3.082,0.32514631100869146
3.084,0.26743804882032046
3.086,0.18357738547158398
3.088,0.10656468712730961
3.09,0.05616590189020793
3.092,0.04835136477376712
3.094,0.12913130804243492
3.096,0.18911981337566278
3.098,0.2747770067728788
3.1,0.32675896422276207
3.102,0.29918725514638833
3.104,0.23736989253301272
3.106,0.14715402886598142
3.108,0.05329985305021025
3.11,-0.0031780618220804413
3.112,0.0036965630953360645
3.114,0.053358307208408395
3.116,0.12137424347136994
3.118,0.19100284243310958
3.12,0.22024403520796823
3.122,0.18469767251844524
3.124,0.10929597735531651
3.126,0.030464987926939323
3.128,-0.06537060698425613
3.13,-0.09514157545859626
3.132,-0.058526339894437
3.134,-0.01720449316116455
3.136,0.08183963003667909
3.138,0.13671911612578988
3.14,0.15388101689438424
3.142,0.09243513573659325
3.144,0.02995133056552797
3.146,-0.10459378015439509
3.148,-0.17136803770311623
3.15,-0.2103561490783784
3.152,-0.18047318467591209
3.154,-0.12013526491041629
3.156,-0.008447236311676046
3.158,0.044513414449716626
3.16,0.08509332793285969
3.162,0.052149913170435276
3.164,-0.009995344032255889
3.166,-0.10447252559443074
3.168,-0.1605091356379546
3.17,-0.18962736137561279
3.172,-0.1585189382373663
3.174,-0.09634921891964299
3.176,-0.0028907669922745884
3.178,0.04253405587822707
3.18,0.07553936967968244
3.182,0.038806275642869974
3.184,-0.030666043893902217
3.186,-0.11159640419734337
3.188,-0.17541128592761526
3.19,-0.1946786390865766
3.192,-0.1696021440888705
3.194,-0.10080098053077434
3.196,-0.009946212839182959
3.198,0.029561394287042228
3.2,0.07915158269859097
3.202,0.02923857452687369
3.204,-0.034686015851800624
3.206,-0.11081453215577317
3.208,-0.1814969355441697
3.21,-0.2077003142219825
3.212,-0.1710708647300409
3.214,-0.11426391943190273
3.216,-0.0261647358825368
3.218,0.02136648228738781
3.22,0.06867850729084542
3.222,-0.0036837566755112345
3.224,-0.032298237418726804
3.226,-0.1420519989188714
3.228,-0.189513364389832
3.23,-0.209235406438386
3.232,-0.15953131247575483
3.234,-0.09842899025072738
3.236,0.010448614672097128
3.238,0.06361197816060772
3.24,0.08961259321242336
3.242,0.04239423073979174
3.244,-0.020176334161447186
3.246,-0.12434314993889171
3.248,-0.18131605959246694
3.25,-0.19153635883711126
3.252,-0.16170797435469625
3.254,-0.08325124377863272
3.256,0.013373139953347107
3.258,0.04926473567517531
3.26,0.07548996382349021
3.262,0.015263190812408166
3.264,-0.053972262939106806
3.266,-0.15243294736255777
3.268,-0.18362357079925695
3.27,-0.19613657405168025
3.272,-0.13212504458097607
3.274,-0.03978522098596429
3.276,0.04651388346347596
3.278,0.09675440429233018
3.28,0.09652831611805283
3.282,0.032497461263998446
3.284,-0.06825300164890162
3.286,-0.15852001454624268
3.288,-0.21811428430618923
3.29,-0.22922646613560974
3.292,-0.162641844266595
3.294,-0.08631010753927136
3.296,0.015507590023598852
3.298,0.05156036029637593
3.3,0.08281799746526522
3.302,-0.0015469680154570112
3.304,-0.05943333498918902
3.306,-0.15155543043424385
3.308,-0.20387907402702574
3.31,-0.20099073399393955
3.312,-0.14495468944868764
3.314,-0.07576112376963692
3.316,0.0065856053000291175
3.318,0.055222483782943435
3.32,0.04405262487099431
3.322,-0.011810958574902582
3.324,-0.07706065211529554
3.326,-0.17031239827636935
3.328,-0.21180196166886459
3.33,-0.1934040631117271
3.332,-0.16417325703075178
3.334,-0.07393015917915682
3.336,-0.0015170832185005972
3.338,0.0345362585217197
3.34,0.02791139435822005
3.342,-0.018466843078991144
3.344,-0.09354207547594764
3.346,-0.17534842010808946
3.348,-0.18981352461964351
3.35,-0.18794464769437574
3.352,-0.13924165785663747
3.354,-0.028805783635665404
3.356,0.007887559676075608
3.358,0.06817888273703088
3.36,0.042488711912011944
3.362,-0.0266244223160651
3.364,-0.09770454650513619
3.366,-0.19241292107885444
3.368,-0.2130247980155693
3.37,-0.1981494200671991
3.372,-0.14222912540148105
3.374,-0.027361448241795025
3.376,0.03596756281744438
3.378,0.08422342230211874
3.38,0.07676142982356672
3.382,0.007564093119199754
3.384,-0.08237475417699441
3.386,-0.15208575045687378
3.388,-0.19016388400838743
3.39,-0.17977290435028834
3.392,-0.09739284724580893
3.394,-0.007805630188049657
3.396,0.06297535465213454
3.398,0.12244646260230875
3.4,0.09468067847621178
3.402,0.03549282149338015
3.404,-0.050576919004265704
3.406,-0.11909124799300344
3.408,-0.16684828561490983
3.41,-0.13269243672773634
3.412,-0.08720686206733273
3.414,0.009697048212457156
3.416,0.056207674442783885
3.418,0.08928366327389102
3.42,0.06230596154190249
3.422,-0.03394020531916414
3.424,-0.10309805310782688
3.426,-0.18464079156931232
3.428,-0.23590172641321464
3.43,-0.18420805811617327
3.432,-0.1437375818523366
3.434,-0.05412692340281274
3.436,0.014559712571523012
3.438,0.041063906122545145
3.44,0.009492342059693905
3.442,-0.05261673374527293
3.444,-0.13628124741884365
3.446,-0.20511716835298446
3.448,-0.24481229693888126
3.45,-0.20050586217633146
3.452,-0.15745749023168734
3.454,-0.07367674729597055
3.456,0.006729628250757942
3.458,0.020589537119253248
3.46,-0.00825113227050413
3.462,-0.04228196123310492
3.464,-0.16047622343501927
3.466,-0.19757857328333087
3.468,-0.23993801230335216
3.47,-0.20214394838459668
3.472,-0.15632986001466276
3.474,-0.04493078104544174
3.476,-0.0009086884040288676
3.478,0.041986862875803076
3.48,0.008340280464643107
3.482,-0.052570740058958655
3.484,-0.15288690965039112
3.486,-0.21261622047122705
3.488,-0.2520517244537465
3.49,-0.21829438099910653
3.492,-0.16183899112192923
3.494,-0.0463619189611235
3.496,-0.005885462058264329
3.498,0.05668546598352523
3.5,0.0034752991941399657
3.502,-0.051226305609724604
3.504,-0.1571997103917188
3.506,-0.21979786222323464
3.508,-0.2568212663330883
3.51,-0.2251846504856578
3.512,-0.15847408645316613
3.514,-0.06290522352927627
3.516,-0.021762817773572817
3.518,0.020854797250880144
3.52,-0.053974129930916936
3.522,-0.11463402361479892
3.524,-0.22723627454152528
3.526,-0.2731820777669093
3.528,-0.2970830186640647
3.53,-0.21321015322741868
3.532,-0.11100626171186785
3.534,0.025619953295062826
3.536,0.15976893262465586
3.538,0.23047893820536414
3.54,0.26724979540019184
3.542,0.30054834777557404
3.544,0.2803168646278877
3.546,0.3566028512199626
3.548,0.4353763009552509
3.55,0.5727094578732506
3.552,0.7205993746030106
3.554,0.8424308884368954
3.556,0.879422538861653
3.558,0.8355463597775703
3.56,0.6977148085287385
3.562,0.4814508709985516
3.564,0.25697166751636197
3.566,0.06146905884907707
3.568,-0.09251491346264319
3.57,-0.14636390937307353
3.572,-0.15710664503598654
3.574,-0.12107120870259545
3.576,-0.09469822824765795
3.578,-0.0795203200243534
3.58,-0.10742379082205451
3.582,-0.1648053847609814
3.584,-0.19692637930205645
3.586,-0.24366741143656528
3.588,-0.2156223262438043
3.59,-0.1584551087120841
3.592,-0.08938389547502452
3.594,0.010720732024405225
3.596,0.044317291062997526
3.598,0.05837273527954606
3.6,0.008231879541629699
3.602,-0.060024219542425525
3.604,-0.1551734341967155
3.606,-0.17823235585115202
3.608,-0.2105314098943652
3.61,-0.14667459727263102
3.612,-0.07244389071294459
3.614,-0.0012938454482776822
3.616,0.05503162195906078
3.618,0.06288425967964482
3.62,-7.524887739394283e-05
3.622,-0.06089370027626004
3.624,-0.15541085797537546
3.626,-0.1955645991637596
3.628,-0.20658581282513488
3.63,-0.14218920963539824
3.632,-0.07380079163395992
3.634,0.020535060904857863
3.636,0.06777732983598465
3.638,0.07298569713631745
3.64,0.0208507051521134
3.642,-0.04844007968053748
3.644,-0.13296389918060203
3.646,-0.16693866846579558
3.648,-0.15655371660460618
3.65,-0.10300234617778595
3.652,-0.006663776538312852
3.654,0.0680043162186388
3.656,0.10435931350526238
3.658,0.1059520868211637
3.66,0.021980713731240758
3.662,-0.05434052703658391
3.664,-0.1457378787735108
3.666,-0.18394168787716003
3.668,-0.1759058377619836
3.67,-0.10764549306618022
3.672,-0.010848876780225876
3.674,0.06006754821505642
3.676,0.1172635648381236
3.678,0.11422487263039663
3.68,0.030471628467659367
3.682,-0.01941254460033693
3.684,-0.1109131904970968
3.686,-0.15043049875326028
3.688,-0.11664224370230909
3.69,-0.0549625030296127
3.692,0.024406480405161392
3.694,0.11869015279100703
3.696,0.16320197305155146
3.698,0.13164278547845568
3.7,0.08994318741271572
3.702,0.007282532548827055
3.704,-0.0926217064188242
3.706,-0.1083860775536562
3.708,-0.10126492434213483
3.71,-0.04927428956420199
3.712,0.048673647647022554
3.714,0.13720110967812604
3.716,0.1739313294835852
3.718,0.1771002038293138
3.72,0.1466633071328255
3.722,0.04689687203695061
3.724,0.003119597438051093
3.726,-0.04212515232614531
3.728,-0.020057783845565877
3.73,0.025677173469761744
3.732,0.12917357547263214
3.734,0.18471641884456994
3.736,0.24102340999344662
3.738,0.21439563117779561
3.74,0.19408666707880765
3.742,0.07374169529395944
3.744,0.053751645605431345
3.746,0.0025838295093111186
3.748,0.02997842024285959
3.75,0.10811897705871001
3.752,0.20541731526667178
3.754,0.26861481045033647
3.756,0.3346148951174235
3.758,0.3093365400858079
3.76,0.24672844058292792
3.762,0.1723695013596328
3.764,0.09514785643346031
3.766,0.054021891324774
3.768,0.0909771768889469
3.77,0.1358322075971823
3.772,0.24602590312341222
3.774,0.29995359834267393
3.776,0.34797342122903824
3.778,0.318331871917593
3.78,0.24872109865729988
3.782,0.15572409482538938
3.784,0.08669201518019731
3.786,0.028865881152709452
3.788,0.07038009158406859
3.79,0.11132995502119794
3.792,0.20773112313393186
3.794,0.2645201588068587
3.796,0.3001005664911129
3.798,0.25492197626088203
3.8,0.19566211238014472
3.802,0.07941294504021507
3.804,0.02115166948171341
3.806,-0.04902002739571807
3.808,-0.005267969285491935
3.81,0.02230526333611478
3.812,0.11107339821508089
3.814,0.16055264574348316
3.816,0.1764939803345165
3.818,0.13192336205942795
3.82,0.0668219234554137
3.822,-0.041706320095645164
3.824,-0.09872305380867089
3.826,-0.1346287805001858
3.828,-0.09833303252110792
3.83,-0.03952858445560611
3.832,0.0551634110791442
3.834,0.1034961267877982
3.836,0.12969406436833514
3.838,0.07760273562494917
3.84,0.022458205895278388
3.842,-0.09848637475846318
3.844,-0.12573288044552391
3.846,-0.17414125287480264
3.848,-0.11914197331403602
3.85,-0.05741146080277213
3.852,0.03540750457764953
3.854,0.07124061641563414
3.856,0.09776380805672273
3.858,0.034729709213719206
3.86,-0.04000480869050917
3.862,-0.1317411008011187
3.864,-0.17915667893648718
3.866,-0.20321055644956934
3.868,-0.13631709770385214
3.87,-0.06728396098351702
3.872,0.024230653417432305
3.874,0.0812359427380779
3.876,0.09076095415628165
3.878,0.03832234260401547
3.88,-0.02658209509892505
3.882,-0.12437670811120786
3.884,-0.15908038608101724
3.886,-0.17702494537680047
3.888,-0.1294226149418661
3.89,-0.04653638832584617
3.892,0.011322808318493447
3.894,0.06991336472694504
3.896,0.06503627140991448
3.898,0.014514048029318454
3.9,-0.05461160413479077
3.902,-0.12204397584239951
3.904,-0.1609680270169678
3.906,-0.1605531332059217
3.908,-0.08566872226044878
3.91,-0.02948976408063614
3.912,0.0539954829777798
3.914,0.10008154752161066
3.916,0.0814103242848608
3.918,0.030154857492093807
3.92,-0.0399595949148967
3.922,-0.12308890025328159
3.924,-0.166001585876919
3.926,-0.14459082579593255
3.928,-0.10560838763659
3.93,-0.017232480055473287
3.932,0.05659634787801268
3.934,0.10457296836634344
3.936,0.09088645100025193
3.938,0.04638977588749885
3.94,-0.0275190300717037
3.942,-0.1107033555732722
3.944,-0.14418243822367874
3.946,-0.12544457593245328
3.948,-0.09035491954159622
3.95,0.006946672926210176
3.952,0.07785165154681017
3.954,0.10390646726474244
3.956,0.09787266508049873
3.958,0.03683668005484374
3.96,-0.06321323653089261
3.962,-0.13118182778428966
3.964,-0.17168303123908948
3.966,-0.16044061028380543
3.968,-0.08963268867234366
3.97,0.010307624886352049
3.972,0.08121346578368267
3.974,0.13878674138148336
3.976,0.11775393878772163
3.978,0.047576720490860966
3.98,-0.032966440960484095
3.982,-0.1355121611342842
3.984,-0.1646486544522947
3.986,-0.15298967144924755
3.988,-0.10017754939888965
3.99,0.013520990871857775
3.992,0.07981660649545849
3.994,0.12093478197285389
3.996,0.11897881916812447
3.998,0.04220488132206712
4.0,-0.055187368104610834
4.002,-0.10504851241714554
4.004,-0.18049759920617306
4.006,-0.13430489302082893
4.008,-0.07896202605770095
4.01,0.005763967906842219
4.012,0.08245770043501587
4.014,0.12083138494170927
4.016,0.08423198261430888
4.018,0.030738594406210996
4.02,-0.06848874505653743
4.022,-0.13691211608509615
4.024,-0.16941633780215645
4.026,-0.14722467661614788
4.028,-0.0784890299757768
4.03,0.009787571203886203
4.032,0.07032405463021492
4.034,0.11280031825725406
4.036,0.06777995502366146
4.038,0.006625599393559246
4.04,-0.08466431824028138
4.042,-0.15970765494626452
4.044,-0.19009484329695736
4.046,-0.15331340744551994
4.048,-0.09677757986176352
4.05,0.005602825643688897
4.052,0.07610351026275433
4.054,0.11032232482361051
4.056,0.08787906497184207
4.058,0.033802876964277195
4.06,-0.0553883864633521
4.062,-0.11566175731010976
4.064,-0.1382548077420332
4.066,-0.11407176722742662
4.068,-0.05385569708011736
4.07,0.04016763950795275
4.072,0.08355299696628503
4.074,0.11829722718824766
4.076,0.0776542899044892
4.078,0.019830095848385593
4.08,-0.0751872099487076
4.082,-0.11356249872908947
4.084,-0.14535568286320594
4.086,-0.10196515999563371
4.088,-0.023068427859695553
4.09,0.05500960158494861
4.092,0.11826047681570945
4.094,0.15203493564826467
4.096,0.10113849129179056
4.098,0.051156503112778785
4.1,-0.028125458127455934
4.102,-0.09098754020712826
4.104,-0.09223313065903904
4.106,-0.05589601040375249
4.108,0.0038611968029997334
4.11,0.09429798449122576
4.112,0.1430019550339733
4.114,0.1433790959952531
4.116,0.1117586697589458
4.118,0.03646010838695965
4.12,-0.06535902851591682
4.122,-0.10637384435203111
4.124,-0.13796127130996938
4.126,-0.11676386443826553
4.128,-0.04053140001911643
4.13,0.022547855312387604
4.132,0.06943935811426415
4.134,0.09044329181778234
4.136,0.05711351743370269
4.138,-0.013587371554286628
4.14,-0.08053519826398078
4.142,-0.12224972902679339
4.144,-0.15387700880276786
4.146,-0.10911584863160687
4.148,-0.04331235845384144
4.15,0.009513355854158937
4.152,0.06623436910074397
4.154,0.08467790329774205
4.156,0.021205804048195033
4.158,-0.023657770592904324
4.16,-0.10964687734302381
4.162,-0.16988177490565962
4.164,-0.1753008139998907
4.166,-0.1493074869961851
4.168,-0.07673440400939208
4.17,-0.009331479017574806
4.172,0.05158020025459347
4.174,0.06849849117577532
4.176,0.017389249895213225
4.178,-0.032980477725815215
4.18,-0.11741484119248047
4.182,-0.18355479290402296
4.184,-0.17192765970651253
4.186,-0.1538100402452242
4.188,-0.06838888347659416
4.19,0.0050985488645834895
4.192,0.06606869418267415
4.194,0.06384088902015271
4.196,0.023173092551790883
4.198,-0.052128869022338147
4.2,-0.15074875125267054
4.202,-0.18571587535387826
4.204,-0.201339642285463
4.206,-0.14591312367211176
4.208,-0.04895562218564335
4.21,0.023196401982589137
4.212,0.08229000582243146
4.214,0.08896900230827295
4.216,-0.008658089738174272
4.218,-0.07284115177763938
4.22,-0.19515774523365526
4.222,-0.2643615683606419
4.224,-0.24734736555376446
4.226,-0.20410019360989715
4.228,-0.10447909601409329
4.23,0.014026553474012772
4.232,0.09000793373475018
4.234,0.12526658101674873
4.236,0.12668518850367336
4.238,0.11083574855352635
4.24,0.09691150768009306
4.242,0.14644649667466164
4.244,0.25850295410574003
4.246,0.4091735016377078
4.248,0.5897919606713065
4.25,0.7696736935173437
4.252,0.8679687430958049
4.254,0.894880114230311
4.256,0.8623840769677219
4.258,0.7358364596388934
4.26,0.5868166444318048
4.262,0.44300805797965787
4.264,0.31916870728359836
4.266,0.19340973951194856
4.268,0.13792774440528027
4.27,0.07387164984712286
4.272,-0.00060533793783555
4.274,-0.06084351919856031
4.276,-0.09940140785121496
4.278,-0.18712048916420412
4.28,-0.2214910405796339
4.282,-0.19039489925856873
4.284,-0.21644307249317343
4.286,-0.1942372896490225
4.29,-0.027360396744225968
4.292,-0.14144738392575268
4.294,0.05270502236490834
4.296,0.023126636088811832
4.298,0.0249645975439067
4.3,0.07488188368948587
4.302,0.03749915540858981
4.304,0.024031724253468684
4.306,0.009109444640840238
4.308,-0.014549240389453166
4.31,-0.03657822591052307
4.312,-0.06415880803974768
4.314,-0.06763785203183152
4.316,-0.07048420242400898
4.318,-0.10906258948721655
4.32,-0.06214067520236529
4.322,-0.08437075843159617
4.324,-0.08977864534010015
4.326,-0.025773690676366517
4.328,-0.05536087869233312
4.33,0.006793092564430523
