Elapsed Time,II
0.0,0.05255802755488388
0.002,0.0735346310291111
0.004,0.12490196013829906
0.006,0.14163961054144283
0.008,0.16840215471997072
0.01,0.1838410942776355
0.012,0.19730390816102672
0.014,0.2052747358597287
0.016,0.21513092691517194
0.018,0.22635390799551297
0.02,0.23088535293724324
0.022,0.24963468046479603
0.024,0.25785169766463417
0.026,0.2677833362645153
0.028,0.2810274098562406
0.03,0.28584680868484547
0.032,0.28515374267963056
0.034,0.2857273678625106
0.036,0.28171600437869554
0.038,0.2662952771583753
0.04,0.2623116575226945
0.042,0.24824770104482416
0.044,0.24007848392182912
0.046,0.22618350222290068
0.048,0.2250220931218104
0.05,0.21660690092895862
0.052,0.20165291570328087
0.054,0.20860285824629
0.056,0.19046657315575607
0.058,0.17866002215071639
0.06,0.17471208318213785
0.062,0.15482413070654258
0.064,0.13861932497952295
0.066,0.1250627202375187
0.068,0.11098020074570016
0.07,0.08843852937890963
0.072,0.07571337490431776
0.074,0.06314277798312734
0.076,0.04230681460088946
0.078,0.022625415727507862
0.08,0.01536771734819391
0.082,-0.012605686615338238
0.084,-0.03519772913026589
0.086,-0.04421160670475855
0.088,-0.07591750830421183
0.09,-0.09680249770691621
0.092,-0.11050952293568643
0.094,-0.13316789558844705
0.096,-0.15458585251064294
0.098,-0.1638406884096247
0.1,-0.17942511010570947
0.102,-0.19307202235836773
0.104,-0.2046617975729306
0.106,-0.20402905339153346
0.108,-0.21929001341000354
0.11,-0.2216516132053856
0.112,-0.21680992255190593
0.114,-0.22326631501633415
0.116,-0.22262496145628768
0.118,-0.21670985565231993
0.12,-0.21190831860464676
0.122,-0.22215223579248244
0.124,-0.2105744762053343
0.126,-0.2136101919244572
0.128,-0.2256510123743717
0.13,-0.22488472600146733
0.132,-0.2278752070199393
0.134,-0.24151458034350598
0.136,-0.24796035591618304
0.138,-0.23978706792894555
0.14,-0.2513940519981662
0.142,-0.2518407302196508
0.144,-0.23423160220065822
0.146,-0.2367124388422618
0.148,-0.23289307102339551
0.15,-0.21497191302564594
0.152,-0.20816140539436942
0.154,-0.21169215771611377
0.156,-0.19822484055780457
0.158,-0.1861245231074848
0.16,-0.19967648811033845
0.162,-0.1880284092911521
0.164,-0.17301758320150423
0.166,-0.18786768765882872
0.168,-0.17883502146746588
0.17,-0.16287343679452465
0.172,-0.1719901579113602
0.174,-0.17614721678153794
0.176,-0.15800184690405888
0.178,-0.1645121870908634
0.18,-0.18258455148821376
0.182,-0.16243596788765935
0.184,-0.1587306288380557
0.186,-0.18396350853183305
0.188,-0.15727926026861472
0.19,-0.1283915581750272
0.192,-0.16351691742973012
0.194,-0.12333805050971601
0.196,-0.07073783059774526
0.198,-0.1411234713890728
0.2,-0.057485308407215975
0.202,-0.06023449674088169
0.204,-0.09357515787452561
0.206,-0.0573074893747591
0.208,-0.050958142706982325
0.21,-0.08703320713068945
0.212,-0.06773220218199154
0.214,-0.048431785385642565
0.216,-0.07438786800882184
0.218,-0.058010427331748424
0.22,-0.021937790658668205
0.222,-0.039662193144437315
0.224,-0.02027686476008468
0.226,0.004848286302763935
0.228,0.0034386420108900935
0.23,-0.006318441725545972
0.232,0.017286115331443502
0.234,0.007621551244764621
0.236,-0.010671611124760314
0.238,0.000795116838691738
0.24,0.004353180417121283
0.242,-0.019264301065762587
0.244,-0.0009690332002094027
0.246,0.010597479495058706
0.248,-0.005042604995714792
0.25,0.010500521585445859
0.252,0.020096009279562742
0.254,0.011727910134848522
0.256,0.0035860584378059395
0.258,0.017119815616204223
0.26,-0.00023469659198386262
0.262,-0.0123180522242301
0.264,-0.004213949739192254
0.266,-0.006073418076393352
0.268,-0.02015126377511304
0.27,-0.0014272785263894291
0.272,0.011625213531078241
0.274,0.0013865445088477838
0.276,0.025570470933412213
0.278,0.039823801565095136
0.28,0.03240345842925347
0.282,0.04382623577314941
0.284,0.053988156004727714
0.286,0.046570290896082216
0.288,0.03958573113392801
0.29,0.05518161219555446
0.292,0.04056244065904075
0.294,0.037842288952781855
0.296,0.04005968273697426
0.298,0.04376083306792452
0.3,0.022385604095825653
0.302,0.030243329519679975
0.304,0.029420214625106682
0.306,0.006424041609944186
0.308,0.00812121649647904
0.31,0.012940409986929486
0.312,-0.0065249412685005745
0.314,-0.00022088342229996562
0.316,0.011942789657340651
0.318,0.010732547916662925
0.32,0.013746056136278245
0.322,0.03720254147310747
0.324,0.03745853055933219
0.326,0.0336383829942052
0.328,0.04589241984436578
0.33,0.04027672928226
0.332,0.02232255587482493
0.334,0.01654958297451129
0.336,0.016486076113375266
0.338,-0.011361722627206729
0.34,-0.012488609997924368
0.342,0.0002319658911364479
0.344,-0.01726960924392687
0.346,-0.005390160273648612
0.348,0.01579639298147799
0.35,0.014556593983599833
0.352,0.022065390859498456
0.354,0.04305734885720228
0.356,0.04517283007909783
0.358,0.04140955372613061
0.36,0.05327392378190763
0.362,0.0653969851921742
0.364,0.0499853343003445
0.366,0.06597287865922973
0.368,0.08709101552180751
0.37,0.07228073526793025
0.372,0.08543515281017994
0.374,0.10946767382578845
0.376,0.09041757310646852
0.378,0.08359918371155314
0.38,0.10481313268502715
0.382,0.0764743024658089
0.384,0.05384830142140056
0.386,0.07917168584734678
0.388,0.06295187122794932
0.39,0.039205620380024
0.392,0.09051233097096857
0.394,0.09276802242441941
0.396,0.08114660410738106
0.398,0.13479578383239907
0.4,0.1625940087049574
0.402,0.10343345525773982
0.404,0.18788890205392497
0.406,0.14812821836654
0.408,0.11324328174978174
0.41,0.14714457416332785
0.412,0.11652108121865583
0.414,0.08816476505451223
0.416,0.11635301240934807
0.418,0.11696958841289175
0.42,0.11020002480301352
0.422,0.14080963021013057
0.424,0.1642469526422684
0.426,0.15210263080608996
0.428,0.1683051718306053
0.43,0.17478959211063222
0.432,0.1511498999235168
0.434,0.1476113593441687
0.436,0.16070025735292234
0.438,0.168972614903244
0.44,0.2043177189130029
0.442,0.2902437670365762
0.444,0.3842354369722758
0.446,0.4991552772817008
0.448,0.6595727545510797
0.45,0.8002198867336964
0.452,0.9253558649055199
0.454,1.0425244687083062
0.456,1.1049126869364907
0.458,1.1027316320381482
0.46,1.0638035612134051
0.462,0.9596254996906763
0.464,0.8022382663484032
0.466,0.6198905740442895
0.468,0.4285221462421395
0.47,0.22083023450332617
0.472,0.050390535890046245
0.474,-0.09638940784542563
0.476,-0.19991838311258328
0.478,-0.2696980350951614
0.48,-0.2891846774852105
0.482,-0.28566079359822144
0.484,-0.26139538183369365
0.486,-0.22410452964571337
0.488,-0.18010645674455805
0.49,-0.15115645281176868
0.492,-0.12771458061480712
0.494,-0.10074221460533758
0.496,-0.1011197476301396
0.498,-0.09573016434523146
0.5,-0.07911722142183016
0.502,-0.08298042470018271
0.504,-0.06627894269702926
0.506,-0.041568509176966965
0.508,-0.03264979431096
0.51,-0.0013023193237233952
0.512,0.009992705495484857
0.514,0.030589381392678597
0.516,0.03137504025572904
0.518,0.0357348767603861
0.52,0.030212539708538245
0.522,0.020065388731489355
0.524,0.0075632012271503925
0.526,0.0022973371505654126
0.528,-0.006673332380402209
0.53,-0.012927711083211217
0.532,-0.004543027944488398
0.534,-0.0048899554259791795
0.536,-0.0005215120246108325
0.538,0.010235109544049294
0.54,0.011997867720475468
0.542,0.012040530544971565
0.544,0.014230850573108324
0.546,0.011106252939442555
0.548,0.004598131220470448
0.55,0.00043560588812808116
0.552,0.00033601804312929885
0.554,-0.0050939084634434185
0.556,-0.005891175926968778
0.558,0.0022581958838528847
0.56,0.00010531573137434239
0.562,0.004901479521352521
0.564,0.0101872183318556
0.566,0.015847772363952725
0.568,0.007681342181423814
0.57,0.020006305654355228
0.572,0.017031732497420047
0.574,0.011681026725735457
0.576,0.021544565552425923
0.578,0.025496646428278962
0.58,0.02079554238955247
0.582,0.036323326594389985
0.584,0.04668158272247047
0.586,0.042977911903399585
0.588,0.06004825711003922
0.59,0.07379635191384286
0.592,0.06450446375559642
0.594,0.07917186437948169
0.596,0.09991806591814899
0.598,0.06783117119772722
0.6,0.11520117031628628
0.602,0.09868101328603446
0.604,0.10700666964833792
0.606,0.1335348919687203
0.608,0.13254780370304775
0.61,0.15112738767161507
0.612,0.17245094065708652
0.614,0.18361417986326045
0.616,0.2041672478081652
0.618,0.22167142843842533
0.62,0.23685608222877833
0.622,0.2541169951056025
0.624,0.26416241445691735
0.626,0.2788099624169781
0.628,0.28783792564583943
0.63,0.29053886970451764
0.632,0.30228413541135385
0.634,0.3019849353792256
0.636,0.302935062125751
0.638,0.3095384014374702
0.64,0.30797899980206445
0.642,0.30948149253205887
0.644,0.31448114207472416
0.646,0.31750972167203295
0.648,0.3168500711496681
0.65,0.32517910017336044
0.652,0.3230496130722552
0.654,0.3233729315933147
0.656,0.3197428520061245
0.658,0.3153736161284675
0.66,0.3017047160126756
0.662,0.2909310828905486
0.664,0.27641816608911624
0.666,0.2555780975605839
0.668,0.2404156303757422
0.67,0.2212599052502854
0.672,0.2040149485106269
0.674,0.1841725511484884
0.676,0.1723754493704682
0.678,0.15035171469718944
0.68,0.13239600899699716
0.682,0.11675187820752367
0.684,0.08628882011164758
0.686,0.06708791395387359
0.688,0.0362232050296221
0.69,0.006633675553147225
0.692,-0.0221525974285585
0.694,-0.05286220232362194
0.696,-0.07820367691127182
0.698,-0.10582926545327759
0.7,-0.1223570068181132
0.702,-0.1439789791371558
0.704,-0.15595765187849053
0.706,-0.16692088101199087
0.708,-0.18090518620356444
0.71,-0.18472381754053302
0.712,-0.19888284604884474
0.714,-0.20390997204972644
0.716,-0.21438705768325603
0.718,-0.22084147966387885
0.72,-0.22789903916324614
0.722,-0.23266029597793392
0.724,-0.23303951301923484
0.726,-0.2369215635231195
0.728,-0.23327834152437224
0.73,-0.23009275759478365
0.732,-0.23353518429586825
0.734,-0.22504767303331563
0.736,-0.23105139153520995
0.738,-0.23048153119479065
0.74,-0.23500783941150075
0.742,-0.23718796127487332
0.744,-0.24577164577413996
0.746,-0.24453528396162388
0.748,-0.24776586565687544
0.75,-0.247126233256819
0.752,-0.2400717255170507
0.754,-0.23410121117852972
0.756,-0.22457606048872872
0.758,-0.21203890904834893
0.76,-0.20245337444116646
0.762,-0.18998111903256507
0.764,-0.18162857355595916
0.766,-0.17363613371410538
0.768,-0.16587525182168922
0.77,-0.16233620674943391
0.772,-0.15620276625352225
0.774,-0.15132563685261713
0.776,-0.14454295537364079
0.778,-0.14017885771911034
0.78,-0.12821584805661085
0.782,-0.12191808706493458
0.784,-0.11269917223658207
0.786,-0.10279998114948097
0.788,-0.09494937863795885
0.79,-0.08873345487510248
0.792,-0.0878021646757087
0.794,-0.07463952902749406
0.796,-0.08322749003596129
0.798,-0.08447620671607627
0.8,-0.06111612512129893
0.802,-0.09979522737475666
0.804,-0.06328945752425931
0.806,-0.07698720385484699
0.808,-0.0845140655431873
0.81,-0.06254252658840782
0.812,-0.07111169314760828
0.814,-0.06936687686425189
0.816,-0.05827255198557706
0.818,-0.052811522529261794
0.82,-0.05877595123679296
0.822,-0.04054970871407187
0.824,-0.039197744135869114
0.826,-0.0380198207817858
0.828,-0.02633686885209124
0.83,-0.021066753691611376
0.832,-0.02094313145818642
0.834,-0.01466590071339271
0.836,-0.007990118232687101
0.838,-0.01229511348949079
0.84,-0.008468952982771092
0.842,-0.003225890770915693
0.844,-0.008067708098309125
0.846,-0.003425729005394947
0.848,0.001734419894969721
0.85,0.0021828608382473014
0.852,0.008979511583753791
0.854,0.015276282540930218
0.856,0.023169132717700557
0.858,0.026776378514805892
0.86,0.03690905903459001
0.862,0.042570431950518114
0.864,0.044487442087573166
0.866,0.052252629023482565
0.868,0.05214820704084265
0.87,0.05432251130641726
0.872,0.05257863490273061
0.874,0.05448937348793086
0.876,0.04711874905080963
0.878,0.049143144571272744
0.88,0.0394082317272691
0.882,0.03930479952911861
0.884,0.032107281462308346
0.886,0.026166989627269224
0.888,0.026284148569218832
0.89,0.021891623079137487
0.892,0.018142433001278494
0.894,0.029684474501677834
0.896,0.022498717050865768
0.898,0.03791826859406738
0.9,0.04095692037772999
0.902,0.05326612286674226
0.904,0.056430509777070974
0.906,0.07193804995850724
0.908,0.06867680693908251
0.91,0.08026325638247936
0.912,0.07528514829417204
0.914,0.07930492206018061
0.916,0.07674208411831338
0.918,0.07251211016687713
0.92,0.07638638046253937
0.922,0.07394158217230769
0.924,0.07252429067341741
0.926,0.08347560432113159
0.928,0.07807641302840257
0.93,0.08502321866679373
0.932,0.08838176891276324
0.934,0.081498525868542
0.936,0.08425897511185225
0.938,0.07210327562232864
0.94,0.06542552116031489
0.942,0.0543482579278117
0.944,0.03938045434585862
0.946,0.03139680476509719
0.948,0.020718721862113307
0.95,0.01041261963247346
0.952,0.007196896697850273
0.954,0.006574058818607509
0.956,-0.004106139814858083
0.958,0.0010896426182902636
0.96,-0.0014407471456584261
0.962,-0.015651851436235747
0.964,-0.011427031640656197
0.966,-0.023187718453305233
0.968,-0.03757780960484844
0.97,-0.038586939006177316
0.972,-0.04953909339033198
0.974,-0.05358847314067375
0.976,-0.05906479440907041
0.978,-0.04461843597672756
0.98,-0.055385606413225034
0.982,-0.03688727886337244
0.984,-0.03242029721944131
0.986,-0.02599651773668164
0.988,-0.026023926307378275
0.99,-0.016280100617715457
0.992,-0.026570372457085347
0.994,-0.033628911353255075
0.996,-0.03390579075890353
0.998,-0.05044909082285033
1.0,-0.056322919906245696
1.0,-0.06054249247895924
1.002,-0.06184902613102673
1.004,-0.06444628298690294
1.006,-0.05588875175337966
1.008,-0.04701061879879942
1.01,-0.039406695425583914
1.012,-0.03546489829923232
1.014,-0.013129834849841392
1.016,-0.022355003168051377
1.018,-0.015359917864263073
1.02,-0.003307085043517501
1.022,-0.02128099946218373
1.024,-0.010673846056189148
1.026,-0.013708508031352228
1.028,-0.01201881823127689
1.03,-0.01288180865967566
1.032,-0.0005771477980118395
1.034,0.013162746098436524
1.036,0.0008961283244514179
1.038,0.04877382445914037
1.04,0.024161736432576634
1.042,0.059725975052651675
1.044,0.052632893293523546
1.046,0.07284869795966997
1.048,0.0625408216803438
1.05,0.08089968950150138
1.052,0.0778904521669092
1.054,0.08247958015595751
1.056,0.0906384555969079
1.058,0.10034966602898926
1.06,0.10350967686955245
1.062,0.12293824682954839
1.064,0.12356656759477339
1.066,0.1502027473728341
1.068,0.13824084223290314
1.07,0.16770515755197496
1.072,0.16044889431639395
1.074,0.16103669741540505
1.076,0.17077084537675483
1.078,0.16484293480129103
1.08,0.15004198676969754
1.082,0.17137310198498118
1.084,0.14166189867771328
1.086,0.15316098654368535
1.088,0.1513709488341792
1.09,0.1412010198591555
1.092,0.14443010756658128
1.094,0.1499957719938206
1.096,0.12960537859436197
1.098,0.14719340656558505
1.1,0.1283044554453495
1.102,0.1254081048124934
1.104,0.12022626811857774
1.106,0.11401409469086717
1.108,0.08906393954806041
1.11,0.10744060054854264
1.112,0.06745447628329307
1.114,0.0815011179595899
1.116,0.061503255245991616
1.118,0.05938019499371003
1.12,0.045158299121596794
1.122,0.04979711100427452
1.124,0.026766594751842843
1.126,0.037254903488335496
1.128,0.006629642082889347
1.13,0.025291821721400536
1.132,-0.014317453112644693
1.134,0.0004271813059222846
1.136,-0.024677345016901234
1.138,-0.02652488663591902
1.14,-0.04833653664780263
1.142,-0.03696833515379164
1.144,-0.07037567715013134
1.146,-0.062347953530194296
1.148,-0.07141888927028728
1.15,-0.08248249685126406
1.152,-0.09199375375811715
1.154,-0.07688909199348597
1.156,-0.10622148547355051
1.158,-0.09547515947672332
1.16,-0.08974978687970397
1.162,-0.10907603949298861
1.164,-0.10311900397760462
1.166,-0.08416965221175941
1.168,-0.12418359737067952
1.17,-0.08496968210333919
1.172,-0.10884243062150291
1.174,-0.10607127250223748
1.176,-0.10583967120000011
1.178,-0.10469407936952269
1.18,-0.11791066019286085
1.182,-0.10648792054336811
1.184,-0.11544075749439825
1.186,-0.1091814920253118
1.188,-0.1123900210712641
1.19,-0.0990633718205026
1.192,-0.10243214715648676
1.194,-0.08966665758999752
1.196,-0.08795829079129301
1.198,-0.07464461486094198
1.2,-0.08140008545249916
1.202,-0.07124512669443658
1.204,-0.06795435636064448
1.206,-0.08606840019502571
1.208,-0.07336546601809485
1.21,-0.0829555331176386
1.212,-0.10332582173818554
1.214,-0.08589650511551768
1.216,-0.10517269270681817
1.218,-0.10982869112990774
1.22,-0.09653868100197412
1.222,-0.10688189426569923
1.224,-0.10256724650164444
1.226,-0.09085635643816785
1.228,-0.09664479373126658
1.23,-0.08065183523528488
1.232,-0.0973541305445341
1.234,-0.06332028395036243
1.236,-0.10187636416161577
1.238,-0.07068822983913375
1.24,-0.08706686179197984
1.242,-0.09023691073330131
1.244,-0.08764056370525122
1.246,-0.08896178272528646
1.248,-0.09700379744670129
1.25,-0.08922416981355868
1.252,-0.09697643529321628
1.254,-0.08288750715899623
1.256,-0.0998466063442812
1.258,-0.07993825603173664
1.26,-0.07883447110741078
1.262,-0.09720477716652443
1.264,-0.06240329718022899
1.266,-0.08428439555967472
1.268,-0.0843149089142351
1.27,-0.06636679069864215
1.272,-0.08635639650066353
1.274,-0.08720502637974427
1.276,-0.07998026444037357
1.278,-0.09666661315881384
1.28,-0.10125222043482361
1.282,-0.09716566968166644
1.284,-0.11139901286979846
1.286,-0.10987801563273698
1.288,-0.11078270941794414
1.29,-0.11212571932482279
1.292,-0.10628563339249927
1.294,-0.11157467215693667
1.296,-0.0955254684090548
1.298,-0.10080427842112351
1.3,-0.10029707933870517
1.302,-0.0884930804087824
1.304,-0.0976090029707072
1.306,-0.10544316325445227
1.308,-0.09046984212500742
1.31,-0.11594653730316612
1.312,-0.10891330684394432
1.314,-0.11132803062717984
1.316,-0.11815165966102546
1.318,-0.11758461032736679
1.32,-0.10839989045696967
1.322,-0.11675948487949014
1.324,-0.10170961848283454
1.326,-0.10717019730162483
1.328,-0.10029209735920613
1.33,-0.09708814482669556
1.332,-0.10761898710431328
1.334,-0.0975228180563509
1.336,-0.10434004198236915
1.338,-0.11527461503132551
1.34,-0.09860492122032415
1.342,-0.10982212859457695
1.344,-0.10710254191467024
1.346,-0.09068943772680772
1.348,-0.0897304267486998
1.35,-0.09009643062032953
1.352,-0.06417860881988441
1.354,-0.07820614954827647
1.356,-0.06738773698443093
1.358,-0.07180455981067506
1.36,-0.07274013120385424
1.362,-0.0868914463062642
1.364,-0.09080411207145014
1.366,-0.08940702398201074
1.368,-0.11012974604816925
1.37,-0.09937281781936311
1.372,-0.08859076958819348
1.374,-0.10624745212723959
1.376,-0.06752132561406037
1.378,-0.07050695719358695
1.38,-0.060687391912677136
1.382,-0.0401795161051395
1.384,-0.035820850660288464
1.386,-0.04217297350139706
1.388,-0.019642071195588737
1.39,-0.0479750653371503
1.392,-0.029502794346739684
1.394,-0.052849961248934145
1.396,-0.04762259438989479
1.398,-0.05935404908520789
1.4,-0.056399641281406246
1.402,-0.07456838390380212
1.404,-0.050450787119433765
1.406,-0.08989714098344503
1.408,-0.0582359975102441
1.41,-0.09041049885567196
1.412,-0.08379469014141869
1.414,-0.09772216591145
1.416,-0.10404742640024753
1.418,-0.11562916308288293
1.42,-0.11706131340483328
1.422,-0.1319131322884365
1.424,-0.11396637004051531
1.426,-0.14256082669948808
1.428,-0.10633031736656394
1.43,-0.12817345467443078
1.432,-0.1115218269833665
1.434,-0.11183617481121921
1.436,-0.10437383354414334
1.438,-0.12336807572357328
1.44,-0.09883279310989491
1.442,-0.127236459789929
1.444,-0.12258456402383135
1.446,-0.11828661086008453
1.448,-0.1377145370652233
1.45,-0.12382742579256285
1.452,-0.1283268447455948
1.454,-0.12697195716784707
1.456,-0.12081748097877426
1.458,-0.12024309621030921
1.46,-0.11655592614205422
1.462,-0.12520382985038758
1.464,-0.11243093590084488
1.466,-0.1399108229066254
1.468,-0.12269730275752833
1.47,-0.1448078456302229
1.472,-0.14403209250594792
1.474,-0.1432623492872918
1.476,-0.1477871277388754
1.478,-0.14501964077939775
1.48,-0.1327075099663249
1.482,-0.13561773360286875
1.484,-0.1197253451831094
1.486,-0.11977042580075117
1.488,-0.10731356866286004
1.49,-0.11479664217881362
1.492,-0.1056358425067354
1.494,-0.11358749439296252
1.496,-0.12051048973911427
1.498,-0.12677873659247949
1.5,-0.13320450599940017
1.502,-0.15098108577824454
1.504,-0.15601735302480285
1.506,-0.15754906715950714
1.508,-0.17741934606716805
1.51,-0.15839727906756956
1.512,-0.15254222948778873
1.514,-0.13547443766468512
1.516,-0.08440844412861524
1.518,-0.03678692232279801
1.52,0.03781920280815457
1.522,0.12858630367181403
1.524,0.23536048326417838
1.526,0.33513427906802046
1.528,0.45998338849298803
1.53,0.5462974918638173
1.532,0.6402207634283977
1.534,0.686611307937495
1.536,0.7095015861817282
1.538,0.6940235814716087
1.54,0.6325700971793423
1.542,0.5428292793229578
1.544,0.4330398388594041
1.546,0.2815800573458175
1.548,0.16426819236960322
1.55,0.009702875539429499
1.552,-0.08172220384946283
1.554,-0.19229434642669752
1.556,-0.23536194199652719
1.558,-0.26376949246898057
1.56,-0.2849557264447033
1.562,-0.23414660662159284
1.564,-0.2258805014281177
1.566,-0.18317152927224
1.568,-0.13490453924316406
1.57,-0.12029599056168933
1.572,-0.10275434105888309
1.574,-0.08383105187711398
1.576,-0.09833862981842004
1.578,-0.11015058595227761
1.58,-0.10577548676905917
1.582,-0.13196527184808493
1.584,-0.13267210322020667
1.586,-0.12561081336570312
1.588,-0.13142185260086026
1.59,-0.1163990087740619
1.592,-0.10471184942391892
1.594,-0.10346885023138241
1.596,-0.08388544596106667
1.598,-0.1018863780503523
1.6,-0.08749161961413712
1.602,-0.10104914888427242
1.604,-0.12769189966537467
1.606,-0.10279239228784882
1.608,-0.1480877247764671
1.61,-0.13305206613855333
1.612,-0.12927049320110684
1.614,-0.14257205467843723
1.616,-0.11983009087313351
1.618,-0.11344875296676298
1.62,-0.1078391245974545
1.622,-0.09516553285432908
1.624,-0.08592859612151266
1.626,-0.0906976142248206
1.628,-0.0778993501246234
1.63,-0.0919535519036063
1.632,-0.08093787501500575
1.634,-0.09019383650485724
1.636,-0.09222170768828307
1.638,-0.08082472016526625
1.64,-0.08883124811300454
1.642,-0.08189869057207855
1.644,-0.07184733883253855
1.646,-0.07375832632299989
1.648,-0.0715365675763435
1.65,-0.06260112561539923
1.652,-0.06404130244208453
1.654,-0.07195764008781314
1.656,-0.05840797351478803
1.658,-0.06154415068986074
1.66,-0.07347215013393371
1.662,-0.045752742699734374
1.664,-0.060324790209391306
1.666,-0.05313174946465434
1.668,-0.039400979750644154
1.67,-0.04186237796908769
1.672,-0.0446660924502172
1.674,-0.032780183477515316
1.676,-0.041014874041806856
1.678,-0.045913793263726424
1.68,-0.04555178331014051
1.682,-0.04324356629065111
1.684,-0.06057763065315924
1.686,-0.04263976589176642
1.688,-0.04827626348090365
1.69,-0.043455484073573206
1.692,-0.03529729597459186
1.694,-0.016939546166545482
1.696,-0.02910866246371895
1.698,0.005756815719636511
1.7,-0.008216602963839017
1.702,0.013033462155134162
1.704,0.008710877981849639
1.706,0.022549367097610618
1.708,0.017481698538743075
1.71,0.03130149525396215
1.712,0.03028915356671943
1.714,0.042881231381859286
1.716,0.04348076606565902
1.718,0.06764636782517851
1.72,0.05164596389676455
1.722,0.09666019242167798
1.724,0.07193024051832309
1.726,0.10010459610512006
1.728,0.11039413113058565
1.73,0.10030342175112707
1.732,0.11582160736980344
1.734,0.13448016210774083
1.736,0.10312189857109369
1.738,0.14210971369908565
1.74,0.133875019189173
1.742,0.12113476873372499
1.744,0.14683812526452023
1.746,0.14301119132300685
1.748,0.12408192311272338
1.75,0.15432640512672552
1.752,0.1367264173945583
1.754,0.13126501265067553
1.756,0.1448242646862329
1.758,0.13668491188603224
1.76,0.1264650028212792
1.762,0.14208275650825344
1.764,0.1264700871093412
1.766,0.1315751995556245
1.768,0.12159721199766489
1.77,0.12733156622855707
1.772,0.11042009273098248
1.774,0.10520830382392655
1.776,0.10369581797174555
1.778,0.08267768930759938
1.78,0.07372908467703482
1.782,0.0757778098382189
1.784,0.042981940161328946
1.786,0.05803885395045075
1.788,0.031021702010710455
1.79,0.03996084855299949
1.792,0.017591889616599313
1.794,0.032337770911865855
1.796,0.002079027544350062
1.798,0.019624928881052706
1.8,-0.007426271681592798
1.802,-0.004905389325910003
1.804,-0.017409835764040985
1.806,-0.02412158849405459
1.808,-0.0417665730165853
1.81,-0.031004010542793652
1.812,-0.05776237517867179
1.814,-0.04903630284148887
1.816,-0.05497576403667256
1.818,-0.05378583708317509
1.82,-0.07182215591399023
1.822,-0.038525173949710674
1.824,-0.07676644605944352
1.826,-0.06002955360710901
1.828,-0.05482171566935457
1.83,-0.0804955288610323
1.832,-0.0710610353219888
1.834,-0.06847406610150315
1.836,-0.09198576546279782
1.838,-0.0816099068475565
1.84,-0.08310395796795451
1.842,-0.09665501896318021
1.844,-0.08850344988845567
1.846,-0.09185670029974122
1.848,-0.09400858547662945
1.85,-0.0919611952426944
1.852,-0.10075905169215209
1.854,-0.07862050366386693
1.856,-0.11441703835041517
1.858,-0.07800800237470716
1.86,-0.09699165136284318
1.862,-0.09536767501703801
1.864,-0.08427960037153445
1.866,-0.08341600597841417
1.868,-0.08981820216721985
1.87,-0.07543549951972804
1.872,-0.07387062494978532
1.874,-0.08479035123782754
1.876,-0.06574968348491954
1.878,-0.07847871834977457
1.88,-0.07526261467944753
1.882,-0.07411207154002696
1.884,-0.07915182295819367
1.886,-0.07414164890293148
1.888,-0.083903491566533
1.89,-0.07127872489043885
1.892,-0.08157162930849272
1.894,-0.07316682028103068
1.896,-0.07518701228740303
1.898,-0.06786530436269178
1.9,-0.07539667181605064
1.902,-0.0617444372689406
1.904,-0.06882886760542414
1.906,-0.06663733577580223
1.908,-0.05803036449035574
1.91,-0.0698411944563215
1.912,-0.05762691115094551
1.914,-0.06262909696762133
1.916,-0.06479696674237825
1.918,-0.05972380345139831
1.92,-0.05811246374139298
1.922,-0.07489426130120341
1.924,-0.045726899587180736
1.926,-0.07660206781869107
1.928,-0.06011943697727755
1.93,-0.05651477220230642
1.932,-0.0733261062874856
1.934,-0.05552466616414683
1.936,-0.06314112528224754
1.938,-0.06245028201370274
1.94,-0.059435855796378376
1.942,-0.061865818335988323
1.944,-0.05581688983334088
1.946,-0.0702646364818776
1.948,-0.05095299398750546
1.95,-0.06952564295580908
1.952,-0.05949534365969788
1.954,-0.061354303539567466
1.956,-0.05769828686980704
1.958,-0.06254697335618298
1.96,-0.04847896631516978
1.962,-0.05524100323996069
1.964,-0.05119179519382198
1.966,-0.044100307045869945
1.968,-0.058322174492540166
1.97,-0.04316217909807396
1.972,-0.07120441789374322
1.974,-0.05246167122695956
1.976,-0.08067571385153799
1.978,-0.07958746513106518
1.98,-0.07445596572787816
1.982,-0.1060605449587575
1.984,-0.06960427816164429
1.986,-0.10349819218893531
1.988,-0.07147371928806771
1.99,-0.08195966827339604
1.992,-0.06385586628036431
1.994,-0.0644407536934032
1.996,-0.04744534652916074
1.998,-0.05199615189599015
2.0,-0.03933262201349727
2.002,-0.04081429697975847
2.004,-0.03716712221680739
2.006,-0.04038150152071516
2.008,-0.029322362636251386
2.01,-0.04386860518470624
2.012,-0.02558238400419279
2.014,-0.03636021191525714
2.016,-0.027142808061670402
2.018,-0.028648366164420926
2.02,-0.02526843134961937
2.022,-0.026951580600137193
2.024,-0.026562350844038945
2.026,-0.027527586909631186
2.028,-0.028605180767806875
2.03,-0.03282953771694842
2.032,-0.025565986306504127
2.034,-0.03247982171073811
2.036,-0.024432304784642346
2.038,-0.017145228000005074
2.04,-0.023471434079474753
2.042,-0.001871007499869909
2.044,-0.009443627044108503
2.046,-0.0061497956645317885
2.048,0.012278339631382574
2.05,-0.015268189243312998
2.052,0.00982095632719313
2.054,-0.0071833503664066566
2.056,-0.010789450546494633
2.058,-0.008007191485246565
2.06,-0.012574760102424
2.062,-0.027233868166583575
2.064,-0.013069611956187055
2.066,-0.03658594976960585
2.068,-0.030700133305899602
2.07,-0.04949721565383485
2.072,-0.048349646780016665
2.074,-0.07595471096718423
2.076,-0.07300768871236193
2.078,-0.09660403732801916
2.08,-0.09876312003590289
2.082,-0.11087196089590641
2.084,-0.10737227893915505
2.086,-0.10734043466854978
2.088,-0.10428162472312053
2.09,-0.0862372599063778
2.092,-0.08334662130730358
2.094,-0.07222847422705486
2.096,-0.05802775732726468
2.098,-0.06372780805939313
2.1,-0.054729103541078405
2.102,-0.06746526461370962
2.104,-0.06370499071352162
2.106,-0.08752847006587218
2.108,-0.0822548352800243
2.11,-0.10201380277162167
2.112,-0.09955753080518157
2.114,-0.11444581273426294
2.116,-0.09816352415967108
2.118,-0.11617226720871239
2.12,-0.10248979540325498
2.122,-0.09840104039693592
2.124,-0.10644146716720213
2.126,-0.09808961801217829
2.128,-0.09461213018295694
2.13,-0.10239020112297553
2.132,-0.10032081435432318
2.134,-0.08681491613598426
2.136,-0.10348207746922289
2.138,-0.08795981911259952
2.14,-0.08149435394485247
2.142,-0.09186108415175712
2.144,-0.08142526687491201
2.146,-0.08212469630106889
2.148,-0.09462659155694808
2.15,-0.10019370772727539
2.152,-0.10452185968982287
2.154,-0.12131423174184827
2.156,-0.13842795843708106
2.158,-0.12498759566753667
2.16,-0.15503565545671166
2.162,-0.1422547256096406
2.164,-0.1397453903055858
2.166,-0.14092252174021513
2.168,-0.13549936186644762
2.17,-0.12005867322974015
2.172,-0.11656475863200066
2.174,-0.11242925498882747
2.176,-0.07823312827441274
2.178,-0.06830513596948831
2.18,-0.026467247747969852
2.182,0.03319432711478989
2.184,0.09899394327720651
2.186,0.18777338917450428
2.188,0.29376366969650647
2.19,0.40642065292124147
2.192,0.51184828824584
2.194,0.6126639563907792
2.196,0.7004659625719999
2.198,0.7306745037805511
2.2,0.751108796305196
2.202,0.7208974983528934
2.204,0.6373588279806032
2.206,0.5440055521707994
2.208,0.4114330402661869
2.21,0.27144757736170483
2.212,0.13421245938001716
2.214,0.012013209671923654
2.216,-0.08304048100159972
2.218,-0.16209913244427057
2.22,-0.19005095489629323
2.222,-0.1990105247571539
2.224,-0.19409148762457676
2.226,-0.1583946666988151
2.228,-0.11861122537511122
2.23,-0.09954657656975532
2.232,-0.07100188366197452
2.234,-0.03992062912319495
2.236,-0.0717160015751946
2.238,-0.05535619169759066
2.24,-0.06822386580512721
2.242,-0.1096643628147798
2.244,-0.09665573539387241
2.246,-0.11745856866861537
2.248,-0.12268974477734652
2.25,-0.11624090332231347
2.252,-0.1008485740755012
2.254,-0.10081945162797162
2.256,-0.09127711435407299
2.258,-0.06466737588017013
2.26,-0.09131970071224246
2.262,-0.062274343886739796
2.264,-0.08775123365472096
2.266,-0.07383455785537413
2.268,-0.09811452891997412
2.27,-0.08268594124129448
2.272,-0.09323664894556309
2.274,-0.0876346604010034
2.276,-0.08515970506348662
2.278,-0.06432742537123572
2.28,-0.08269935869573147
2.282,-0.05026237477147014
2.284,-0.06355761385734263
2.286,-0.05694567417011439
2.288,-0.05972000893896541
2.29,-0.05488940741660554
2.292,-0.06761847974699976
2.294,-0.06143347169760097
2.296,-0.0591027762217743
2.298,-0.06163675010711704
2.3,-0.060342520544638116
2.302,-0.03582301230590635
2.304,-0.06415484026026907
2.306,-0.025134849165695815
2.308,-0.04917215394349152
2.31,-0.03484505363253513
2.312,-0.04502532503288748
2.314,-0.03538831364606477
2.316,-0.05542218615617506
2.318,-0.0361579612225448
2.32,-0.04933922882192226
2.322,-0.039370438990263136
2.324,-0.0360852190933896
2.326,-0.022395972106039174
2.328,-0.028187663241833503
2.33,-0.006519504063577284
2.332,-0.006215907887834722
2.334,-0.01275775918863012
2.336,0.009471159426900041
2.338,-0.008909067067827006
2.34,-0.004085810450165521
2.342,0.0054892246338004375
2.344,-0.011558952718915223
2.346,0.010028720112066989
2.348,0.00024233041913057413
2.35,0.018947102400968186
2.352,0.01677326394154669
2.354,0.03517211498161573
2.356,0.03147522107668096
2.358,0.054524369867894835
2.36,0.0372380629635684
2.362,0.06752859022404616
2.364,0.049210848259490694
2.366,0.06465017544115106
2.368,0.06829942733190328
2.37,0.07117942478260353
2.372,0.08110656884033765
2.374,0.09359130265914907
2.376,0.09784230540731331
2.378,0.11993811404473123
2.38,0.1141040137956858
2.382,0.14456397531818715
2.384,0.13103380745283572
2.386,0.15042138072797412
2.388,0.14923027285878607
2.39,0.15342078681300036
2.392,0.15192391753517953
2.394,0.164726881084721
2.396,0.15912289732933438
2.398,0.1706999396389052
2.4,0.17646142670853857
2.402,0.18231643013620183
2.404,0.19228912881169627
2.406,0.19047349831747612
2.408,0.2065915417736451
2.41,0.20191408627024013
2.412,0.19195593659465202
2.414,0.22542172076669242
2.416,0.179803225020874
2.418,0.21381154838286126
2.42,0.20284945115576092
2.422,0.19716629973216881
2.424,0.20453622413416503
2.426,0.21275159380833303
2.428,0.19884101629003292
2.43,0.2040019852510248
2.432,0.2112855889693499
2.434,0.18102927091266807
2.436,0.19380300916417886
2.438,0.16795783681863138
2.44,0.1608752667514272
2.442,0.14058445954095414
2.444,0.13147009738450585
2.446,0.1202839430715781
2.448,0.09689106952426506
2.45,0.1074959769292331
2.452,0.0803428081284774
2.454,0.08641949120809661
2.456,0.07182265834860954
2.458,0.06918171120238605
2.46,0.056581046710072434
2.462,0.047255264148269596
2.464,0.04031891693143916
2.466,0.022993936533809337
2.468,0.018697566096311527
2.47,0.006486982485809485
2.472,-0.0006139902907864408
2.474,-0.0009493135838898735
2.476,-0.013696567518313989
2.478,-0.0037286708371640997
2.48,-0.011175404549675288
2.482,-0.01823591740946825
2.484,-0.005121909461148348
2.486,-0.022090250914117447
2.488,-0.02798192778907423
2.49,-0.018067674869200776
2.492,-0.04291837447040337
2.494,-0.04399113210958438
2.496,-0.03758200181826148
2.498,-0.06100810278324583
2.5,-0.050955723376066756
2.502,-0.05239440909412393
2.504,-0.05869050321205327
2.506,-0.0525686423472788
2.508,-0.05300064279342389
2.51,-0.049751824792774575
2.512,-0.05595677674461822
2.514,-0.0451406648951924
2.516,-0.055578864024305515
2.518,-0.048319797093246554
2.52,-0.05306880530131481
2.522,-0.04956838769849753
2.524,-0.05011710559266212
2.526,-0.04839291166758232
2.528,-0.05140686829552691
2.53,-0.03968793474549172
2.532,-0.055330959576753214
2.534,-0.04678121726353436
2.536,-0.040678807535642375
2.538,-0.06691412161469903
2.54,-0.04163487954616136
2.542,-0.05550499899560468
2.544,-0.06212403179365043
2.546,-0.04620372017584394
2.548,-0.048518184898434805
2.55,-0.05594093682434038
2.552,-0.03213698321051004
2.554,-0.03977032349593142
2.556,-0.03891371823703308
2.558,-0.024486426214668216
2.56,-0.03398383213585571
2.562,-0.03274089108884849
2.564,-0.02982215236651432
2.566,-0.03836469555555964
2.568,-0.0320526058509116
2.57,-0.045474767313586205
2.572,-0.02488809414362687
2.574,-0.04519135828246136
2.576,-0.024727348391329187
2.578,-0.02759716895116983
2.58,-0.026541108016127118
2.582,-0.020627529112124322
2.584,-0.019030190284050973
2.586,-0.02802152559081775
2.588,-0.01863753609674109
2.59,-0.03668183051038271
2.592,-0.023938855564725157
2.594,-0.04416969218284652
2.596,-0.0284371097837124
2.598,-0.03738651404427033
2.6,-0.03190172940144438
2.602,-0.02263324382055659
2.604,-0.02039365340905569
2.606,-0.01675494436270406
2.608,-0.007693346517363296
2.61,-0.010023029275268304
2.612,-0.012964075844751117
2.614,-0.014767465212076319
2.616,-0.015539066586259389
2.618,-0.039924595759825966
2.62,-0.02007863846844159
2.622,-0.0518285535155573
2.624,-0.031768969813664116
2.626,-0.05536490860789735
2.628,-0.02454862760443345
2.63,-0.05644853038978806
2.632,-0.024163372963160085
2.634,-0.03472679535490196
2.636,-0.03889405747807725
2.638,-0.030479455176293073
2.64,-0.03445359511859184
2.642,-0.05318545073960917
2.644,-0.03586774565343807
2.646,-0.06106187602602751
2.648,-0.046406085555083625
2.65,-0.062064991797935946
2.652,-0.042541304760077274
2.654,-0.052978696370744635
2.656,-0.03659280532233959
2.658,-0.04112214643354173
2.66,-0.018502516012369803
2.662,-0.04639711696936839
2.664,-0.016722779440351745
2.666,-0.03451804609779123
2.668,-0.05036769719221925
2.67,-0.03218256319279831
2.672,-0.055774102755279754
2.674,-0.05945201294256057
2.676,-0.04794970134534422
2.678,-0.054737578272357375
2.68,-0.048285650976672874
2.682,-0.04218848243462139
2.684,-0.019059378167573856
2.686,-0.03872133266948235
2.688,-0.008123023238236635
2.69,-0.01281015186618065
2.692,-0.02094733539259061
2.694,-0.016864071526526702
2.696,-0.01302688585432118
2.698,-0.03811756033693979
2.7,-0.02799037551053353
2.702,-0.02366710745995211
2.704,-0.04351984058882927
2.706,-0.022095168554155914
2.708,-0.011615570127827214
2.71,-0.02379084044963863
2.712,0.007958995600609538
2.714,0.00983618619449743
2.716,0.007287370328258409
2.718,0.02473274546313787
2.72,0.023318495798190626
2.722,0.009680366462830853
2.724,0.02415296148838514
2.726,0.004723066818966875
2.728,0.001302921088049045
2.73,-0.0025701391005362923
2.732,-0.011775263265857164
2.734,-0.022500174575078094
2.736,-0.022653406188870535
2.738,-0.034966032253928185
2.74,-0.04186757216240161
2.742,-0.051614713199290084
2.744,-0.05029739104938235
2.746,-0.07869325229638581
2.748,-0.062275799446648995
2.75,-0.08334834893441172
2.752,-0.08864034642269515
2.754,-0.07642278075810482
2.756,-0.0926703312399527
2.758,-0.08178292279556869
2.76,-0.08212797149045183
2.762,-0.07594509390209853
2.764,-0.08321177598676424
2.766,-0.07119150524134657
2.768,-0.07457636432254136
2.77,-0.08857623228578039
2.772,-0.06615113804711076
2.774,-0.09655118998656002
2.776,-0.07869503289055926
2.778,-0.09142168495183241
2.78,-0.08705283321985784
2.782,-0.09280313450715835
2.784,-0.08560253843087297
2.786,-0.09187001257813839
2.788,-0.09118729869024805
2.79,-0.0890469220429852
2.792,-0.0989514464543885
2.794,-0.09729285491142532
2.796,-0.10262717549752776
2.798,-0.10863476359625031
2.8,-0.10704570056203863
2.802,-0.10987480230227215
2.804,-0.10604584054493926
2.806,-0.1059120542465817
2.808,-0.09385739450242152
2.81,-0.09700015604626526
2.812,-0.08898688982316909
2.814,-0.07982790143535475
2.816,-0.09850141439623109
2.818,-0.07416775437680308
2.82,-0.10606478870284955
2.822,-0.08946736566765995
2.824,-0.10942222310421762
2.826,-0.10585934429036034
2.828,-0.11464975120913498
2.83,-0.10966436392182412
2.832,-0.11620253311399034
2.834,-0.10983654963273978
2.836,-0.10730180674417072
2.838,-0.11022195525090209
2.84,-0.10047914916555765
2.842,-0.09281086206688377
2.844,-0.0892267619677718
2.846,-0.05423593308352373
2.848,-0.028021411113681793
2.85,0.027084475280592553
2.852,0.09365725973865863
2.854,0.19049466340412588
2.856,0.28248876500312076
2.858,0.39479704128424203
2.86,0.5270170078677069
2.862,0.5989438076529839
2.864,0.7061598012079906
2.866,0.7627194295049845
2.868,0.7562586929456507
2.87,0.7591792534138089
2.872,0.6873558504258298
2.874,0.582395128607142
2.876,0.46491438453219774
2.878,0.3302616660611551
2.88,0.1798292954214095
2.882,0.04819317746830333
2.884,-0.043436332778738804
2.886,-0.14317866531452414
2.888,-0.19238864728868446
2.89,-0.18633121870602296
2.892,-0.2144277072181648
2.894,-0.16397229313246747
2.896,-0.13761825006676123
2.898,-0.09944611028732508
2.9,-0.07057857397407215
2.902,-0.048320124459062
2.904,-0.026559808298874846
2.906,-0.05125980106408931
2.908,-0.03900444439059068
2.91,-0.05312299877334434
2.912,-0.08597180228843898
2.914,-0.07410120623729499
2.916,-0.0851725262275954
2.918,-0.09607936480161193
2.92,-0.07911784741916629
2.922,-0.06784047440703495
2.924,-0.08097837799324041
2.926,-0.04786931614362986
2.928,-0.06859211183499327
2.93,-0.05081073077204136
2.932,-0.07069317513188632
2.934,-0.06385419031984252
2.936,-0.07124649277342968
2.938,-0.07645547087042502
2.94,-0.07779437192108593
2.942,-0.052685427983638934
2.944,-0.07625325628863473
2.946,-0.03933874193172002
2.948,-0.03558060363692659
2.95,-0.035276183126618836
2.952,-0.02868051036935455
2.954,-0.007937642887436947
2.956,-0.04664443573834168
2.958,-0.020881426621219445
2.96,-0.040715916435864453
2.962,-0.04425527308847119
2.964,-0.05442304846268378
2.966,-0.02943003226108111
2.968,-0.055505516837583035
2.97,-0.02175664989857638
2.972,-0.019140189560189213
2.974,-0.010540035225882406
2.976,0.004022522106072189
2.978,0.009002055081378692
2.98,0.009075145973968697
2.982,0.010754598855712248
2.984,-0.000850617280588428
2.986,-0.0016189748384964591
2.988,-0.015989615997716908
2.99,-0.01796672155916753
2.992,-0.031242758182546772
2.994,-0.011726139642346086
2.996,-0.040674172783356624
2.998,-0.005382460687112839
3.0,-0.012395466017587745
3.002,-0.011442789180417185
3.004,0.007502847254941988
3.006,0.011831184521697596
3.008,-0.0025276137531430824
3.01,0.02436767019945314
3.012,0.009616315081912874
3.014,0.013520948623967742
3.016,0.018797814286107994
3.018,0.028186436327359246
3.02,0.018523695056955645
3.022,0.04716247343682736
3.024,0.03643848831974817
3.026,0.060884811411234245
3.028,0.05641477536014957
3.03,0.06744579221233114
3.032,0.08091250053531315
3.034,0.06163427252070634
3.036,0.09132234665202793
3.038,0.07238967930714835
3.04,0.08659656065535393
3.042,0.08448504212849406
3.044,0.09847496988537736
3.046,0.10002014329274758
3.048,0.11101052687747698
3.05,0.12673065177079076
3.052,0.1383870286097458
3.054,0.13521439951062164
3.056,0.16945528278562308
3.058,0.1592179892225979
3.06,0.1648695119811517
3.062,0.18763112744047336
3.064,0.17429725155305542
3.066,0.18091272922782717
3.068,0.19313710318192856
3.07,0.18592740055633453
3.072,0.19103157268179793
3.074,0.19263502281928332
3.076,0.2009170792958488
3.078,0.18692875101096174
3.08,0.19919941865504356
3.082,0.19479465153334188
3.084,0.1893952590396824
3.086,0.1880662024521063
3.088,0.1916294438029304
3.09,0.18833281215382866
3.092,0.1756230714511774
3.094,0.20133174907269163
3.096,0.17766127353939648
3.098,0.18405619360823944
3.1,0.19260249357892298
3.102,0.17483850166762724
3.104,0.17245585013458528
3.106,0.1679219025281525
3.108,0.15199909274559223
3.11,0.1345456925890142
3.112,0.12566881763847618
3.114,0.11067149460392477
3.116,0.09054956395819068
3.118,0.0835445524300351
3.12,0.07830208461978712
3.122,0.06448271486528255
3.124,0.05879655738260825
3.126,0.07032430543524526
3.128,0.049810385099792
3.13,0.05044334624850342
3.132,0.06031974835889218
3.134,0.028053255927585962
3.136,0.03541780309943076
3.138,0.016408767598797176
3.14,0.006363459383469272
3.142,-0.02501677553443085
3.144,-0.01193391123946585
3.146,-0.0548305651394572
3.148,-0.04937374729108105
3.15,-0.06330033703688166
3.152,-0.06485804824148796
3.154,-0.07996241624016295
3.156,-0.058447264555160416
3.158,-0.07580061335526529
3.16,-0.059092762846958934
3.162,-0.060937737123581116
3.164,-0.04952366068660834
3.166,-0.05644198970217791
3.168,-0.044270070906594385
3.17,-0.05004731136376474
3.172,-0.04862256666365929
3.174,-0.05716122044344244
3.176,-0.04813506095734642
3.178,-0.06880060448029117
3.18,-0.058865455509842
3.182,-0.06754060195334234
3.184,-0.06911110358278191
3.186,-0.06847391751812508
3.188,-0.0680936838986675
3.19,-0.06468861526955891
3.192,-0.06667715566837848
3.194,-0.06397550630247464
3.196,-0.05279534728180822
3.198,-0.07603241939823716
3.2,-0.04830155236315147
3.202,-0.07089226534917244
3.204,-0.06885382358072076
3.206,-0.06577554117469446
3.208,-0.07458932616264775
3.21,-0.08030704421493558
3.212,-0.07276878431861644
3.214,-0.08366555623621846
3.216,-0.07580896438172391
3.218,-0.08982490580751475
3.22,-0.061060042116280126
3.222,-0.10116967870594415
3.224,-0.0587255783521152
3.226,-0.08600734726572111
3.228,-0.07187218225098857
3.23,-0.07545131956461555
3.232,-0.062127964602559614
3.234,-0.07641569786905365
3.236,-0.052825143341450866
3.238,-0.061366182108282936
3.24,-0.04878842194782298
3.242,-0.05512429247940387
3.244,-0.03782271053304395
3.246,-0.0540423866298857
3.248,-0.049507798791187566
3.25,-0.04918689966626916
3.252,-0.0645156659688246
3.254,-0.06976478405354601
3.256,-0.06291107843306987
3.258,-0.08770925425291741
3.26,-0.06911313677429055
3.262,-0.08060849451221272
3.264,-0.06353891082308215
3.266,-0.07169887483107976
3.268,-0.04381719516672345
3.27,-0.051540715985140935
3.272,-0.038869633961235946
3.274,-0.033938769522029545
3.276,-0.037042167889142406
3.278,-0.04346915405293957
3.28,-0.04580107237089959
3.282,-0.056886321008838565
3.284,-0.0705342435828231
3.286,-0.07352887232928132
3.288,-0.07944291020576237
3.29,-0.09090290848120194
3.292,-0.07801734303242129
3.294,-0.08743817985281228
3.296,-0.06998338920126759
3.298,-0.08438448448038076
3.3,-0.050619005622135366
3.302,-0.08110647073265094
3.304,-0.05510446306569686
3.306,-0.06597601683807611
3.308,-0.07092353643249487
3.31,-0.07237238101165366
3.312,-0.070145790415433
3.314,-0.08301705068736241
3.316,-0.07915569748048569
3.318,-0.07529055589331296
3.32,-0.08060934077934928
3.322,-0.0826588975037271
3.324,-0.06716559634204902
3.326,-0.08395438576070095
3.328,-0.08263010205679366
3.33,-0.07137083530314065
3.332,-0.09629836411851397
3.334,-0.08626703780992523
3.336,-0.08920257883284018
3.338,-0.09463023359695785
3.34,-0.09289074326517946
3.342,-0.0842381742212106
3.344,-0.07875488290264201
3.346,-0.08549351454718304
3.348,-0.059385324901180266
3.35,-0.06725524224301938
3.352,-0.0750751758619207
3.354,-0.04632240029458519
3.356,-0.08498567314506303
3.358,-0.0644778837508921
3.36,-0.07870871807165226
3.362,-0.08920802771996318
3.364,-0.07694671730497887
3.366,-0.09580089303429636
3.368,-0.0776108341590823
3.37,-0.07637120777019427
3.372,-0.08160980918952687
3.374,-0.05194570445273274
3.376,-0.06482226654766884
3.378,-0.053988508888959584
3.38,-0.04522477566807823
3.382,-0.050531219074230034
3.384,-0.05355567061602443
3.386,-0.04711643628250424
3.388,-0.049580249869053114
3.39,-0.058197264059723676
3.392,-0.04226283769080398
3.394,-0.04082637114041844
3.396,-0.04561972496127115
3.398,-0.019690041100791204
3.4,-0.02584314465467979
3.402,-0.016610234692013368
3.404,-0.014007493109763026
3.406,-0.008002984946220358
3.408,-0.0242503981954514
3.41,-0.01370592618134442
3.412,-0.037686006758356996
3.414,-0.029147634387455188
3.416,-0.05578445709971297
3.418,-0.05257562036082891
3.42,-0.05490501524105771
3.422,-0.08176522723280269
3.424,-0.06365020987240608
3.426,-0.07350452956415494
3.428,-0.09588449136132507
3.43,-0.06876663491320828
3.432,-0.09653049037587205
3.434,-0.09252533040425145
3.436,-0.09420725136437978
3.438,-0.09633367633538312
3.44,-0.10435597235625482
3.442,-0.10011106191734195
3.444,-0.10005067677378308
3.446,-0.09952917815543462
3.448,-0.1102691864763509
3.45,-0.08800548828621103
3.452,-0.10930577140306513
3.454,-0.1076156040219172
3.456,-0.09594339048086899
3.458,-0.11155787343200621
3.46,-0.1196316313497007
3.462,-0.09069149823346177
3.464,-0.12771096751622857
3.466,-0.09633153917462377
3.468,-0.10900689224501986
3.47,-0.09171300356136929
3.472,-0.10884492400501304
3.474,-0.07880276261801059
3.476,-0.10328617097574411
3.478,-0.089490145685348
3.48,-0.10126367207971977
3.482,-0.0974035491218851
3.484,-0.1148996513721429
3.486,-0.10596274114376698
3.488,-0.11799119055272948
3.49,-0.10940019958033191
3.492,-0.12149222108027559
3.494,-0.0914931175045505
3.496,-0.11983387403919654
3.498,-0.08183881413435264
3.5,-0.10486289807499577
3.502,-0.08566756788370383
3.504,-0.10268377956878993
3.506,-0.09644840190283718
3.508,-0.11257930265890091
3.51,-0.1172042495656251
3.512,-0.13049540900495957
3.514,-0.12757508667615314
3.516,-0.15506006685858048
3.518,-0.1293440903061618
3.52,-0.16179314707756356
3.522,-0.136685843260415
3.524,-0.15346448478955826
3.526,-0.1312619695224374
3.528,-0.14189812264848073
3.53,-0.10545506585271486
3.532,-0.09332812207364952
3.534,-0.05449535000487108
3.536,0.012281598773170636
3.538,0.07241714163320491
3.54,0.1596813092872949
3.542,0.2850550154182437
3.544,0.3628950679645326
3.546,0.5054662826913725
3.548,0.5934169770421996
3.55,0.6796466965790712
3.552,0.7361369124934929
3.554,0.7614698806770799
3.556,0.733587164858144
3.558,0.6806515036392694
3.56,0.5922125965423883
3.562,0.46424644821978267
3.564,0.3330604875531522
3.566,0.2006819364440159
3.568,0.0565310752860708
3.57,-0.04340078319085193
3.572,-0.13772905430909732
3.574,-0.19070591299751397
3.576,-0.22535961964035514
3.578,-0.2210123296127434
3.58,-0.20660290224792754
3.582,-0.1855286373850458
3.584,-0.13322392778965217
3.586,-0.12136501728549833
3.588,-0.08203425083952716
3.59,-0.06421299174918672
3.592,-0.06932425149028504
3.594,-0.049557748131741575
3.596,-0.07186633099535901
3.598,-0.06836026660001471
3.6,-0.08026458543352813
3.602,-0.0767217680529584
3.604,-0.09446907421029682
3.606,-0.06447021614681184
3.608,-0.08848976821486326
3.61,-0.06418283674216377
3.612,-0.06179256978990327
3.614,-0.06661320022349278
3.616,-0.060511025396790444
3.618,-0.05720507327619984
3.62,-0.07695064911451371
3.622,-0.06354915922871833
3.624,-0.0820350126737459
3.626,-0.07459340687117408
3.628,-0.0857900526421012
3.63,-0.06993975307682723
3.632,-0.07982281247286144
3.634,-0.06271755187782241
3.636,-0.06083505526684455
3.638,-0.05049171815537238
3.64,-0.04817831573157522
3.642,-0.03452195316823227
3.644,-0.040059125409517796
3.646,-0.03038115255301787
3.648,-0.029502381186886268
3.65,-0.03566127681247114
3.652,-0.026432328353727243
3.654,-0.03241633091509099
3.656,-0.03858639973012495
3.658,-0.024379413928472496
3.66,-0.04501271961235916
3.662,-0.03149771541132784
3.664,-0.04121201652037085
3.666,-0.03749166999439134
3.668,-0.04357063372216741
3.67,-0.04012068870391891
3.672,-0.03397343990481299
3.674,-0.04482518349468552
3.676,-0.02933026141517698
3.678,-0.01829175373606482
3.68,-0.03785242246277533
3.682,0.0018747807304133528
3.684,-0.008740411065278243
3.686,-0.006614469938599209
3.688,0.014226058968974227
3.69,0.013824555373733689
3.692,0.005929202902682633
3.694,0.02093636910994649
3.696,0.023923184975060005
3.698,0.003772116802671005
3.7,0.02147530065836417
3.702,0.023254834907300622
3.704,0.0007022822492092609
3.706,0.02610089321183425
3.708,0.02304846247442721
3.71,0.017907660461294602
3.712,0.033851480460138784
3.714,0.0468207334593245
3.716,0.04309127264276001
3.718,0.05605343101398924
3.72,0.08163106082409963
3.722,0.06247461018749153
3.724,0.09294850927860207
3.726,0.08712569434788009
3.728,0.09867984270608571
3.73,0.08802893878942333
3.732,0.11098682424535043
3.734,0.09292633165162122
3.736,0.1110857366506068
3.738,0.09669829498954705
3.74,0.13450698154263077
3.742,0.09582150558589698
3.744,0.1494064859267872
3.746,0.1350219888591762
3.748,0.1478028247738237
3.75,0.16522755371372527
3.752,0.17900709218481017
3.754,0.16825842789576465
3.756,0.1987926206116276
3.758,0.19066921335029044
3.76,0.191579855028161
3.762,0.20273363022272836
3.764,0.19990586852361206
3.766,0.19304485359340737
3.768,0.21055568518722137
3.77,0.189481909295837
3.772,0.21258798250782365
3.774,0.191927651573264
3.776,0.2068013526120496
3.778,0.19842571752576785
3.78,0.1964151476173326
3.782,0.1913180683609745
3.784,0.19656032802684476
3.786,0.170701859395805
3.788,0.18954520832059246
3.79,0.16197076542081607
3.792,0.17048305311607315
3.794,0.153948859171055
3.796,0.1590153154411654
3.798,0.13778199200296343
3.8,0.14751349664883623
3.802,0.11851140537021569
3.804,0.13198534021145045
3.806,0.090371120682658
3.808,0.10863103547932781
3.81,0.06675494702191566
3.812,0.06921479290489224
3.814,0.0490849132374037
3.816,0.03909469002667976
3.818,0.02219654796561161
3.82,0.027409422366442872
3.822,0.004280070144022205
3.824,0.014353599648626212
3.826,0.0010393375804181562
3.828,0.006674870646451502
3.83,-0.006322530216919125
3.832,0.0036611610122166474
3.834,-0.012325586638702231
3.836,-0.004771895924135728
3.838,-0.022501471561603013
3.84,-0.0038080613896415163
3.842,-0.040528601816184194
3.844,-0.00637431314351232
3.846,-0.04044642875435607
3.848,-0.02387533733856472
3.85,-0.0382251973379653
3.852,-0.029158003406179304
3.854,-0.0517208727578898
3.856,-0.03519768903744477
3.858,-0.05587458334141543
3.86,-0.052567734157653985
3.862,-0.06129424296710459
3.864,-0.053367131569095144
3.866,-0.07144646385751521
3.868,-0.05020418841107577
3.87,-0.060438866237928414
3.872,-0.050685159945701073
3.874,-0.045964640005508206
3.876,-0.03896168368374006
3.878,-0.043421174176616416
3.88,-0.028809935670660005
3.882,-0.0466721538786119
3.884,-0.03207698819013289
3.886,-0.05025637774190624
3.888,-0.0519424150367798
3.89,-0.047913483910078755
3.892,-0.0677333167228209
3.894,-0.05564681718729344
3.896,-0.05818752573413548
3.898,-0.05888128741489833
3.9,-0.050323746219561094
3.902,-0.0423910959420685
3.904,-0.03726607376661609
3.906,-0.040814018119398415
3.908,-0.01600758958076992
3.91,-0.03642405742530467
3.912,-0.02640724267164377
3.914,-0.022400751441819924
3.916,-0.035699785643132094
3.918,-0.036358374631114826
3.92,-0.030247075991549913
3.922,-0.04093792663328618
3.924,-0.04315351820647036
3.926,-0.02856061716483301
3.928,-0.04142903357467722
3.93,-0.030089826652867274
3.932,-0.028812826397095162
3.934,-0.020759639339083587
3.936,-0.025974670817084683
3.938,-0.01640795268858599
3.94,-0.011147523860204074
3.942,-0.020516905214992474
3.944,-0.014313001515048338
3.946,-0.0059497151656818055
3.948,-0.028002116646172637
3.95,-0.01308603469226679
3.952,-0.018124305148244837
3.954,-0.031878755356137156
3.956,-0.02547877610958786
3.958,-0.025812646196601074
3.96,-0.03973772580283243
3.962,-0.02928167777319281
3.964,-0.029708993317321405
3.966,-0.03292753326235057
3.968,-0.026299453084753028
3.97,-0.01601442463339047
3.972,-0.025755863022824687
3.974,-0.008411979471347987
3.976,-0.013199664538925503
3.978,-0.016376765545819544
3.98,-0.004645719290477744
3.982,-0.025138365435750654
3.984,-0.014221086823603762
3.986,-0.020195246167195126
3.988,-0.03612975366145273
3.99,-0.015928346831081245
3.992,-0.03190453492347141
3.994,-0.030171774485197183
3.996,-0.013534554918936799
3.998,-0.021025450526951425
4.0,-0.02523783688579087
4.002,0.006099937697334124
4.004,-0.031207556111273165
4.006,-0.004254260146372729
4.008,-0.017700717727521718
4.01,-0.024515327407303996
4.012,-0.026820418868407123
4.014,-0.02476642955845378
4.016,-0.04155729155731946
4.018,-0.027346972411858565
4.02,-0.03749431037352039
4.022,-0.029879191423487116
4.024,-0.028397767110498563
4.026,-0.0267992760326032
4.028,-0.024652728870091442
4.03,-0.022803107376103943
4.032,-0.03504255590489741
4.034,-0.023822791130684952
4.036,-0.04699261598127373
4.038,-0.04218232608414593
4.04,-0.04931393561480817
4.042,-0.05471862093129755
4.044,-0.056822389940512
4.046,-0.04375453336499001
4.048,-0.05337097672167046
4.05,-0.03363510366552237
4.052,-0.03006063557234887
4.054,-0.021079764988416797
4.056,-0.017391283296813546
4.058,-0.004284978122236359
4.06,-0.011512185729497562
4.062,-0.007025272815626798
4.064,-0.007317958450728348
4.066,-0.011996613516276919
4.068,-0.02056642619486923
4.07,-0.008448384706623934
4.072,-0.02815211344830857
4.074,-0.013054306292320869
4.076,-0.02218249083548646
4.078,-0.009534585308021712
4.08,-0.022500651051870414
4.082,0.0008614766420803142
4.084,-0.013503092222218734
4.086,-0.0037647524649987193
4.088,0.0034574371921878423
4.09,-0.00038353337137256223
4.092,0.002385144537668697
4.094,0.020408136146769836
4.096,0.004417526432843618
4.098,0.026357201942393653
4.1,0.02818976439842858
4.102,0.024457950762726034
4.104,0.037857233457148795
4.106,0.03910117227060195
4.108,0.027868634548732285
4.11,0.03884373560373324
4.112,0.029969120917924297
4.114,0.01630239771583662
4.116,0.018977326607512297
4.118,0.012675845924163293
4.12,-0.012069332767595331
4.122,0.0027608359923118595
4.124,-0.015041840851646913
4.126,-0.026718526085354983
4.128,-0.01689990882378357
4.13,-0.028172768787740356
4.132,-0.03534781246121111
4.134,-0.027969016009943386
4.136,-0.029881592427068178
4.138,-0.036601034778655485
4.14,-0.031640404590308695
4.142,-0.020885411344287567
4.144,-0.039223642793545226
4.146,-0.025081461638249963
4.148,-0.021833263796182313
4.15,-0.0394405017068586
4.152,-0.034038095450792026
4.154,-0.028124601274399936
4.156,-0.060478389522153654
4.158,-0.042440058445839514
4.16,-0.0579016209043203
4.162,-0.06728207579038924
4.164,-0.0615034586708215
4.166,-0.06883905641580969
4.168,-0.061758036446718914
4.17,-0.06689587992467988
4.172,-0.05721263732675459
4.174,-0.04958301830439548
4.176,-0.06339098891734744
4.178,-0.04342571294455574
4.18,-0.05142397856958779
4.182,-0.06511955222678559
4.184,-0.046526157724350606
4.186,-0.07106010365922283
4.188,-0.06253282351151876
4.19,-0.07076958438082022
4.192,-0.06411720735890639
4.194,-0.07088258546944717
4.196,-0.0629687838466227
4.198,-0.05416077606693641
4.2,-0.06529933816486887
4.202,-0.04380165367426982
4.204,-0.05703405265755794
4.206,-0.055602094179230135
4.208,-0.04918862175348519
4.21,-0.06949986367265017
4.212,-0.0687380079049935
4.214,-0.06296810252892894
4.216,-0.10290420363416891
4.218,-0.07246775769451612
4.22,-0.09947785972083657
4.222,-0.10941188185443135
4.224,-0.09202636149805753
4.226,-0.10738845637723023
4.228,-0.10269591776843914
4.23,-0.07897820488009095
4.232,-0.061647465804760306
4.234,-0.027272917687726616
4.236,0.03020711934291607
4.238,0.10489975560306093
4.24,0.18107142156456932
4.242,0.28661080879979683
4.244,0.4010125438148872
4.246,0.501771775141332
4.248,0.6011347574504765
4.25,0.6999641504882226
4.252,0.7471091073157784
4.254,0.7695599981231295
4.256,0.777713900849861
4.258,0.7188730635326045
4.26,0.6380803556155913
4.262,0.538554278932454
4.264,0.4215202053172174
4.266,0.26641882558169033
4.268,0.1596121266841252
4.27,0.042654832980802485
4.272,-0.06780579733161984
4.274,-0.13696172396010986
4.276,-0.1580715031327601
4.278,-0.21169089420050416
4.28,-0.2091945682504957
4.282,-0.15095620194536882
4.284,-0.16660634174884378
4.286,-0.15094611121163504
4.29,-0.002282405612069276
4.292,-0.13846262620929706
4.294,0.03690103361484214
4.296,-0.0036678538641578963
4.298,-0.0038114553822104946
4.3,0.05170561873717639
4.302,0.02464766717705544
4.304,0.023059501497361662
4.306,0.01876689840487214
4.308,0.0023355192422094173
4.31,-0.017235050722994562
4.312,-0.047522381126895316
4.314,-0.058082382660917455
4.316,-0.07037032721350235
4.318,-0.11789706828238532
4.32,-0.0765798820299652
4.322,-0.09927611432062292
4.324,-0.10006586510172626
4.326,-0.028357080529103934
4.328,-0.050340765638380504
4.33,0.01628650719505537
