Elapsed Time,II
0.0,0.07312507475601945
0.002,0.07978874093542127
0.004,0.11439950712624394
0.006,0.1453755959767953
0.008,0.1714026667673902
0.01,0.1760022465598362
0.012,0.19800321534196835
0.014,0.21126390690855104
0.016,0.21403022842331554
0.018,0.22564075702573505
0.02,0.2306967261586712
0.022,0.24523124319171316
0.024,0.2592638217994774
0.026,0.2743422774637574
0.028,0.27953789891430614
0.03,0.2808616391992519
0.032,0.2855344977288951
0.034,0.28677943654728355
0.036,0.2828166494829556
0.038,0.2690148111782014
0.04,0.2604485877429604
0.042,0.2441034340544257
0.044,0.24126386418730625
0.046,0.22873660263354903
0.048,0.2258985389572171
0.05,0.21753556250364955
0.052,0.1981522479184104
0.054,0.20450101316572172
0.056,0.1959661443761456
0.058,0.18363969129133279
0.06,0.16881176598232808
0.062,0.1518991767589871
0.064,0.1430438863118678
0.066,0.12408755657708818
0.068,0.10934084413044412
0.07,0.09292775540778274
0.072,0.07442054997771491
0.074,0.0576879113586685
0.076,0.0454583913238614
0.078,0.025594517608840513
0.08,0.012131952492378598
0.082,-0.010520809598527695
0.084,-0.03348915377202718
0.086,-0.05167129308308495
0.088,-0.07545509639314694
0.09,-0.08610745060352235
0.092,-0.11246996006895899
0.094,-0.1435587277116043
0.096,-0.15281346292007278
0.098,-0.15691364215504314
0.1,-0.17915857083575512
0.102,-0.19531756047487764
0.104,-0.20797593393117916
0.106,-0.20522530000484748
0.108,-0.21342742861000383
0.11,-0.21990404534354335
0.112,-0.22326874172512123
0.114,-0.22272319284277212
0.116,-0.21814451485126576
0.118,-0.2206622526830866
0.12,-0.2124857144969549
0.122,-0.21612503305297717
0.124,-0.21406546194132484
0.126,-0.21857012573714116
0.128,-0.2200288647595851
0.13,-0.2242293554045963
0.132,-0.23230486017207694
0.134,-0.23640729758429666
0.136,-0.24787092445654954
0.138,-0.24933429191277318
0.14,-0.24589438872141858
0.142,-0.24147770292188453
0.144,-0.24366398518501067
0.146,-0.24375351850325444
0.148,-0.22373472190570984
0.15,-0.21371358877422622
0.152,-0.2120455305389432
0.154,-0.20778449025218237
0.156,-0.20293289532155473
0.158,-0.19174089445516537
0.16,-0.18676087002328873
0.162,-0.18511764089677804
0.164,-0.18962862457449142
0.166,-0.1853180841699624
0.168,-0.16548634096002296
0.17,-0.1700590198735884
0.172,-0.1759726072115215
0.174,-0.16872932765850304
0.176,-0.1651316998141984
0.178,-0.16642129163751812
0.18,-0.16888360326977825
0.182,-0.16950465101383486
0.184,-0.16912620099254927
0.186,-0.16992138879882954
0.188,-0.16147157110510646
0.19,-0.1410117729870551
0.192,-0.13758072892661427
0.194,-0.12454519809060903
0.196,-0.11672923222237525
0.198,-0.11485233346603184
0.2,-0.0034189991594526657
0.202,-0.11566479190795563
0.204,-0.1365843607940161
0.206,0.020226302489827985
0.208,-0.03819834358324334
0.21,-0.1687115623642938
0.212,-0.03944639798243477
0.214,0.013709241122631277
0.216,-0.13991580560450265
0.218,-0.07983791415055141
0.22,0.06160175115885917
0.222,-0.0671967391840754
0.224,-0.09285489915263048
0.226,0.07383301463888903
0.228,0.03691962273019971
0.23,-0.09293034819724166
0.232,0.03869323982103993
0.234,0.07975664173032279
0.236,-0.08279676731698629
0.238,-0.028217849896872038
0.24,0.10296587422904524
0.242,-0.04715605923106184
0.244,-0.08993026341833539
0.246,0.0879439064401318
0.248,0.03988882701589903
0.25,-0.08926516760886632
0.252,0.037924121801633584
0.254,0.09684061575615681
0.256,-0.07174528638101312
0.258,-0.02030093128717509
0.26,0.1043658391454112
0.262,-0.0384421216314648
0.264,-0.09730387726947917
0.266,0.07538265186966499
0.268,0.024080712741343352
0.27,-0.10838054715342339
0.272,0.03502081787576245
0.274,0.09352244224937364
0.276,-0.05761779114196874
0.278,-0.0023448620054702324
0.28,0.14356531684657103
0.282,0.020015743968933103
0.284,-0.04180191325949998
0.286,0.12660843187704415
0.288,0.08249651102712438
0.29,-0.049123026206407065
0.292,0.06700541808765577
0.294,0.12472677221320766
0.296,-0.044440579178064744
0.298,0.009199420270725511
0.3,0.13044471229034127
0.302,-0.0017186327944054057
0.304,-0.058551083958449615
0.306,0.09271661630747634
0.308,0.04098272796937803
0.31,-0.0939740277738965
0.312,0.027941781691564218
0.314,0.08559162307110711
0.316,-0.0744903464979789
0.318,-0.02091395189171243
0.32,0.11571707747923171
0.322,0.0033960711720711265
0.324,-0.037570859800168006
0.326,0.11810637400493752
0.328,0.0627127079470572
0.33,-0.06014552976782089
0.332,0.07133441502247939
0.334,0.09232777104745143
0.336,-0.07969320077253435
0.338,-0.03215558076814545
0.34,0.0938910551479397
0.342,-0.042256293420615716
0.344,-0.0936780682899538
0.346,0.08380842804524195
0.348,0.03477070710014362
0.35,-0.08692456223138065
0.352,0.06495262424446101
0.354,0.1183177255362229
0.356,-0.04011517527237427
0.358,0.02005936088146719
0.36,0.1461360062653622
0.362,0.0260945186922911
0.364,-0.014304496190770743
0.366,0.15005926928143487
0.368,0.09907512810782691
0.37,-0.025096057189028315
0.372,0.1290033103110182
0.374,0.18543224497343366
0.376,0.008226786658119484
0.378,0.054241141853380755
0.38,0.196413620903225
0.382,0.05169708174790157
0.384,-0.01740962961249116
0.386,0.14703628752277292
0.388,0.09426390108294831
0.39,-0.04808500280681887
0.392,0.10296289533328766
0.394,0.1730461095927927
0.396,0.035932395826184335
0.398,0.08121219671483092
0.4,0.22108538051774243
0.402,0.12306594137078135
0.404,0.13564163839628282
0.406,0.15707396340948407
0.408,0.14662035097857626
0.41,0.12312279538904937
0.412,0.10483581134659602
0.414,0.1123317722283876
0.416,0.11176402493826956
0.418,0.10310655696125626
0.42,0.12194527736146953
0.422,0.1413320660612112
0.424,0.15318315538965566
0.426,0.16120437615898012
0.428,0.17525275916522848
0.43,0.163249597802204
0.432,0.14715558618449698
0.434,0.15496272671222414
0.436,0.16524496951640452
0.438,0.16894743860089362
0.44,0.19649953523983998
0.442,0.28409547200864094
0.444,0.3950776413034013
0.446,0.507286609933897
0.448,0.6490927158507233
0.45,0.7949717930719691
0.452,0.93074458884388
0.454,1.0415802923230053
0.456,1.1080299274007586
0.458,1.1104515847319911
0.46,1.0521198993102672
0.462,0.9470878134769497
0.464,0.8188594400010852
0.466,0.633932316002288
0.468,0.41275269564607686
0.47,0.2084628972416973
0.472,0.059948424823201944
0.474,-0.08760840780336163
0.476,-0.20066729357608823
0.478,-0.27466113690652316
0.48,-0.29614785926648135
0.482,-0.28335324333512885
0.484,-0.25064175075063666
0.486,-0.22560377477311264
0.488,-0.19005594063678194
0.49,-0.14871770332923717
0.492,-0.12154724865826565
0.494,-0.10517294098117634
0.496,-0.1034021738223953
0.498,-0.08923275331992396
0.5,-0.07831459680604604
0.502,-0.09068624552058314
0.504,-0.06879174775670287
0.506,-0.034120284934742166
0.508,-0.026550814067093503
0.51,-0.00694042534328955
0.512,0.0010519096544028476
0.514,0.03336176116893345
0.516,0.04001919554557103
0.518,0.03593196391639507
0.52,0.025723609464780726
0.522,0.01786721409518105
0.524,0.00555982272798479
0.526,0.0047939209797561175
0.528,0.0010555700444446984
0.53,-0.014015135102174826
0.532,-0.014133080838565269
0.534,-0.006094418228192991
0.536,0.005682312198637662
0.538,0.013280138603621712
0.54,0.01318650676206509
0.542,0.00878793630407106
0.544,0.005071103478044942
0.546,0.012603377049556025
0.548,0.018345869041467924
0.55,0.001800704264565225
0.552,-0.012197770627248696
0.554,-0.00869649175356137
0.556,0.00017299691968372734
0.558,0.005782843575373956
0.56,0.002313940513762002
0.562,0.004314962028329369
0.564,0.002603938802541731
0.566,0.011901523974147132
0.568,0.014328338414259456
0.57,0.02729870566397696
0.572,0.017601834309538968
0.574,0.0051976382768792705
0.576,0.01151167142379503
0.578,0.025706331548139946
0.58,0.03605240843102526
0.582,0.04608351093604906
0.584,0.03620759525681749
0.586,0.024454366862821448
0.588,0.05405105249304537
0.59,0.09354782153207107
0.592,0.0943882480693411
0.594,0.07048227499502413
0.596,0.04813252592746112
0.598,0.0530081200911564
0.6,0.17592356342556348
0.602,0.1435666633942334
0.604,0.0579051653256813
0.606,0.06281314026952675
0.608,0.14948831210737937
0.61,0.23163433061630523
0.612,0.1992040737624089
0.614,0.11709929958742159
0.616,0.13768079826856774
0.618,0.2510522793867357
0.62,0.3228997403396452
0.622,0.27477951659916144
0.624,0.18883908242361125
0.626,0.21218203164064844
0.628,0.32317931158831786
0.63,0.3815379067052517
0.632,0.3232752562622271
0.634,0.218987023905665
0.636,0.22986495264844492
0.638,0.3533344447162829
0.64,0.4084002678444851
0.642,0.32232815158108585
0.644,0.22338350959985562
0.646,0.25226686549877
0.648,0.36397634951310875
0.65,0.41736290049854546
0.652,0.3385491130038317
0.654,0.24161652541520465
0.656,0.24712919376942336
0.658,0.35218142048091483
0.66,0.40304898958415164
0.662,0.31642810724524956
0.664,0.18694412177904915
0.666,0.17541085573066828
0.668,0.2811989803848724
0.67,0.3257210859299501
0.672,0.23001902939240415
0.674,0.09675508858640398
0.676,0.08792569597900299
0.678,0.18513137285729922
0.68,0.24337789212675984
0.682,0.14967083890472782
0.684,-0.008237288557083555
0.686,-0.021402978380412618
0.688,0.07740203146908504
0.69,0.11580176460430579
0.692,0.0059383907384982565
0.694,-0.13888351080370226
0.696,-0.1640538854575627
0.698,-0.07806380720175594
0.7,-0.01305155189921384
0.702,-0.10129857681089324
0.704,-0.2454982413497202
0.706,-0.264394414602517
0.708,-0.14582333579349532
0.71,-0.06960546505067176
0.712,-0.16721687857131703
0.714,-0.2929762847407048
0.716,-0.2980004058344569
0.718,-0.19070112905568268
0.72,-0.1279058212695038
0.722,-0.1945506555165545
0.724,-0.3076933487620003
0.726,-0.32599871218904286
0.728,-0.21498998446332138
0.73,-0.1263583271441823
0.732,-0.18733732143422896
0.734,-0.3029445984969617
0.736,-0.3241990837376787
0.738,-0.20717349745847363
0.74,-0.1305312943800626
0.742,-0.1995498972226004
0.744,-0.32242485198993637
0.746,-0.32566652402892243
0.748,-0.22613966914814823
0.75,-0.15586860932811444
0.752,-0.20161659021139852
0.754,-0.29979675056178595
0.756,-0.3049266396669752
0.758,-0.19626130694628954
0.76,-0.113604073201588
0.762,-0.15126480138065854
0.764,-0.24389032096272967
0.766,-0.25124292683393035
0.768,-0.15357334670414505
0.77,-0.07448785902846339
0.772,-0.11495323851289675
0.774,-0.21901538411608065
0.776,-0.22318436712284934
0.778,-0.11398466536499993
0.78,-0.0406014163762954
0.782,-0.10071091455467564
0.784,-0.1800452073078168
0.786,-0.16178605516718653
0.788,-0.06731326961695583
0.79,-0.011718861794649085
0.792,-0.07190497569548342
0.794,-0.1479573624708804
0.796,-0.13154629474329246
0.798,-0.031041208185873716
0.8,-0.0002824007534238204
0.802,-0.12693830846180063
0.804,-0.11646053200431203
0.806,-0.07278612154904847
0.808,-0.05217804927533404
0.81,-0.05342915418679929
0.812,-0.07982035422644349
0.814,-0.08087345822064208
0.816,-0.06684450299847886
0.818,-0.04680417533175055
0.82,-0.043815208745409104
0.822,-0.038366883705865655
0.824,-0.050608252119026
0.826,-0.04621988665168482
0.828,-0.023504116909615555
0.83,-0.011724626458895012
0.832,-0.016099060402778004
0.834,-0.020307509533324507
0.836,-0.015517484099156929
0.838,-0.01306007287820253
0.84,-0.003980013949838262
0.842,0.003733845184618594
0.844,-0.006164975298838604
0.846,-0.01400973092208223
0.848,-0.00611409563272881
0.85,0.012848714969049697
0.852,0.019188442145576346
0.854,0.0075492247333579674
0.856,0.015184294399827556
0.858,0.030067505651683063
0.86,0.03948319974689534
0.862,0.043452398895367166
0.864,0.047647988435450456
0.866,0.04877026268804697
0.868,0.04572303720638198
0.87,0.058343808110938505
0.872,0.05840663889827078
0.874,0.051665127196960946
0.876,0.04521734291755669
0.878,0.04987879586089273
0.88,0.03606250759700711
0.882,0.040601027620114756
0.884,0.03963050937950597
0.886,0.02358226283187702
0.888,0.01727656311303206
0.89,0.024796725739886925
0.892,0.025729757476932368
0.894,0.027193979222668207
0.896,0.01814556010768073
0.898,0.039773784325872114
0.9,0.04193043715818068
0.902,0.05173589386833878
0.904,0.057648220045881896
0.906,0.07374796231547033
0.908,0.0668324362226172
0.91,0.07764642187675001
0.912,0.07681981294070897
0.914,0.08283479790202124
0.916,0.07532218130927709
0.918,0.06853751905405256
0.92,0.0787780214107421
0.922,0.07744119862825168
0.924,0.06799619255833063
0.926,0.08145387342069246
0.928,0.08506843059750879
0.93,0.08494761155022834
0.932,0.07993542396149259
0.934,0.08354918833277351
0.936,0.09202463576079882
0.938,0.06901297969701725
0.94,0.06075190334800124
0.942,0.05700992737115838
0.944,0.03935824464159022
0.946,0.03062197939793033
0.948,0.02544211179909968
0.95,0.008443018083603166
0.952,-0.0005288552864919331
0.954,0.011158357663504108
0.956,0.003863923387365921
0.958,-0.004986318893946371
0.96,-0.006942735127974066
0.962,-0.009806695962682868
0.964,-0.010000214403111886
0.966,-0.027121624701040806
0.968,-0.03496426472119474
0.97,-0.03757406399386472
0.972,-0.05472773967542081
0.974,-0.05170074651142408
0.976,-0.05336695121868726
0.978,-0.04840785910820696
0.98,-0.05995694036733332
0.982,-0.032740241517945474
0.984,-0.029451912219958742
0.986,-0.029043583289857157
0.988,-0.028151454336860404
0.99,-0.015127638895476936
0.992,-0.023881712959513343
0.994,-0.033059571450094805
0.996,-0.0382258811566072
0.998,-0.05166433574162026
1.0,-0.05048381694458317
1.0,-0.060276121873926
1.002,-0.0676290353289643
1.004,-0.062194860004932
1.006,-0.05274066360646127
1.008,-0.052814040000285334
1.01,-0.03740814142309435
1.012,-0.02592454736236116
1.014,-0.021558127895152948
1.016,-0.03492140309649127
1.018,-0.0011990682965774813
1.02,0.010882422192881859
1.022,-0.03855396180041083
1.024,-0.024761148687036622
1.026,0.003030524952573297
1.028,0.00034074572020362844
1.03,-0.025812713959965074
1.032,-0.010048310130152789
1.034,0.02070117371181982
1.036,0.007007154805610452
1.038,0.045854394115790835
1.04,0.021156739560864442
1.042,0.06086310942171927
1.044,0.05336132845785109
1.046,0.0697631619363681
1.048,0.0629725228981933
1.05,0.08897521363135114
1.052,0.07736840559587653
1.054,0.06841303114936512
1.056,0.0904941160001638
1.058,0.1188097088649883
1.06,0.10465686882949335
1.062,0.10380252808626475
1.064,0.1214189696005131
1.066,0.16551269659298976
1.068,0.14126162958529068
1.07,0.15983622466401434
1.072,0.1565843862158508
1.074,0.16008251474710364
1.076,0.17564173285384546
1.078,0.1732648800416001
1.08,0.14391823118936162
1.082,0.15906036596152998
1.084,0.14909832864926276
1.086,0.16487567244710855
1.088,0.14302903844540402
1.09,0.1339075449606053
1.092,0.1527087777537045
1.094,0.1509503351919672
1.096,0.12269798592108158
1.098,0.15213082255257676
1.1,0.13270595287894013
1.102,0.11695326803778952
1.104,0.11869324221325037
1.106,0.12278098981320341
1.108,0.08851504396154793
1.11,0.10111301380768978
1.112,0.06825586065237912
1.114,0.08405876419896402
1.116,0.06266845998914262
1.118,0.060194567283186055
1.12,0.04040923874617337
1.122,0.04732885162028283
1.124,0.035209650573058686
1.126,0.039239105953383445
1.128,-0.003752250734042922
1.13,0.025351599491771036
1.132,-0.005156818393738189
1.134,-0.0019626682618126253
1.136,-0.029248334399239635
1.138,-0.022933355477499237
1.14,-0.050445209871467965
1.142,-0.039658819086736095
1.144,-0.06190944131767939
1.146,-0.06280593773798007
1.148,-0.08328490633347602
1.15,-0.07738189565051312
1.152,-0.08143412945256032
1.154,-0.0867352048115173
1.156,-0.11073527702581085
1.158,-0.08232641020905639
1.16,-0.09418831486353837
1.162,-0.12292022286854212
1.164,-0.08988182898147026
1.166,-0.07260906375970036
1.168,-0.14297022689451463
1.17,-0.0918442877538406
1.172,-0.08963908129690754
1.174,-0.10490773971731995
1.176,-0.12041729603829134
1.178,-0.10089079613019294
1.18,-0.1110001478786617
1.182,-0.11290013577498531
1.184,-0.11468803111580282
1.186,-0.10345703598330691
1.188,-0.11800414297827348
1.19,-0.10086206532916712
1.192,-0.0961599924882873
1.194,-0.093965716738063
1.196,-0.09118748444003522
1.198,-0.06382409514371962
1.2,-0.0828485794028147
1.202,-0.08714899177849918
1.204,-0.0628138250414523
1.206,-0.06786859607935118
1.208,-0.07924403693429599
1.21,-0.10028620101989522
1.212,-0.10012411714267279
1.214,-0.07189466696905811
1.216,-0.10346451384909275
1.218,-0.11953408637489335
1.22,-0.10317833810429512
1.222,-0.10076735999535653
1.224,-0.09316669452339885
1.226,-0.0952581709877102
1.228,-0.10544912322081446
1.23,-0.07588852263296302
1.232,-0.09220627632267477
1.234,-0.069682695331103
1.236,-0.10186509606168959
1.238,-0.0629498350525888
1.24,-0.09170566056480355
1.242,-0.0977581350208168
1.244,-0.08046053434990284
1.246,-0.08381820024978393
1.248,-0.10424392840393844
1.25,-0.09044242682638218
1.252,-0.09128537737012904
1.254,-0.08551171121062048
1.256,-0.10403202022142181
1.258,-0.07552776905177773
1.26,-0.07450609114368804
1.262,-0.0999499548845658
1.264,-0.06930234786608884
1.266,-0.08671207519470919
1.268,-0.07284736224530491
1.27,-0.056776205861459185
1.272,-0.10291428528866113
1.274,-0.10331164976483499
1.276,-0.05972169311380013
1.278,-0.07744254536074927
1.28,-0.12224956514556898
1.282,-0.11440073953105916
1.284,-0.09324966669882953
1.286,-0.09958591715349198
1.288,-0.12302763642388723
1.29,-0.11262636979686395
1.292,-0.10155778118889687
1.294,-0.12037646470915597
1.296,-0.09292355615908035
1.298,-0.08648184469105032
1.3,-0.10851639917115742
1.302,-0.10262701911346642
1.304,-0.08627014524615446
1.306,-0.0969577377839196
1.308,-0.10253398465571648
1.31,-0.1156922970647383
1.312,-0.09770698160761548
1.314,-0.11984953804864304
1.316,-0.12802416406356953
1.318,-0.10460020896462544
1.32,-0.09940931575662654
1.322,-0.12864335853314401
1.324,-0.11064961977143803
1.326,-0.10143826218268162
1.328,-0.09088158035275379
1.33,-0.0941628846450908
1.332,-0.11715266333196865
1.334,-0.10810107747413836
1.336,-0.09609376112676998
1.338,-0.10106778277532688
1.34,-0.10337290462658001
1.342,-0.1223258919538827
1.344,-0.10807671115669149
1.346,-0.08432726827814911
1.348,-0.08158528494653249
1.35,-0.0885332613277111
1.352,-0.07931898853102282
1.354,-0.08622072532554201
1.356,-0.04732132376248616
1.358,-0.06130177158600815
1.36,-0.09416773158258396
1.362,-0.09519551842275309
1.364,-0.07203428876520178
1.366,-0.08673645090462175
1.368,-0.12313240775625062
1.37,-0.09556240620793162
1.372,-0.08238053759229737
1.374,-0.11465143244047406
1.376,-0.06847379030282266
1.378,-0.06107799421110391
1.38,-0.0614034578709704
1.382,-0.04712737783428167
1.384,-0.037697147626552005
1.386,-0.039516088718897974
1.388,-0.012005520885864564
1.39,-0.04702074919704364
1.392,-0.04354307514403323
1.394,-0.054632619269505384
1.396,-0.029519009898724254
1.398,-0.0602570268678562
1.4,-0.07402288282343637
1.402,-0.06845681878963343
1.404,-0.038290136990697395
1.406,-0.10146561617268474
1.408,-0.061553768947547854
1.41,-0.07566637624246358
1.412,-0.08965492456455426
1.414,-0.11173440488004543
1.416,-0.09191004126787197
1.418,-0.10620919162492351
1.42,-0.130528797544148
1.422,-0.13463616553044178
1.424,-0.10407441700599253
1.426,-0.14589845283966363
1.428,-0.10986659164845326
1.43,-0.12196566408249027
1.432,-0.11384200137280573
1.434,-0.11646907401445238
1.436,-0.09966779075148925
1.438,-0.12414034878609818
1.44,-0.10113723994476198
1.442,-0.11948899412399208
1.444,-0.1265101188540598
1.446,-0.13159923908524127
1.448,-0.12657039523843397
1.45,-0.10882499003625513
1.452,-0.144204894441843
1.454,-0.13885802858084856
1.456,-0.10524789933297102
1.458,-0.11529889244103833
1.46,-0.1262953581428055
1.462,-0.12185710722303202
1.464,-0.11218115763702916
1.466,-0.14994489786202017
1.468,-0.11325585769754733
1.47,-0.13193610805284475
1.472,-0.15972930982367073
1.474,-0.15443004239750568
1.476,-0.13162110048125703
1.478,-0.13906298729024794
1.48,-0.14338042008675364
1.482,-0.13507654463947788
1.484,-0.11853290514948583
1.486,-0.12567616419795943
1.488,-0.09828737844848325
1.49,-0.10629938223618289
1.492,-0.12239043632510208
1.494,-0.12159408574541511
1.496,-0.10057882662368979
1.498,-0.12141463512015785
1.5,-0.15141767543604528
1.502,-0.15307853582283612
1.504,-0.14323323316084197
1.506,-0.15807093602720038
1.508,-0.18304810328796656
1.51,-0.15627902480288328
1.512,-0.1538836925507516
1.514,-0.13880399894165513
1.516,-0.07750159596761062
1.518,-0.03143181986296364
1.52,0.02712144856228603
1.522,0.11941784839288469
1.524,0.24830051947057805
1.526,0.3499329835867153
1.528,0.44595910943500905
1.53,0.525237769315388
1.532,0.6543928710531001
1.534,0.7125105358725361
1.536,0.6961411167060061
1.538,0.6667801535435183
1.54,0.6440544524908259
1.542,0.5667963890993704
1.544,0.4244415557897832
1.546,0.26504049058329615
1.548,0.1693193986820358
1.55,0.016727214957723058
1.552,-0.08314239985346049
1.554,-0.19068510914012676
1.556,-0.23707241731315673
1.558,-0.27036715406785244
1.56,-0.2809785552780502
1.562,-0.2276886761074435
1.564,-0.23120478295535432
1.566,-0.18474241844295738
1.568,-0.1290029095195753
1.57,-0.12627181549440084
1.572,-0.10860733986596556
1.574,-0.07061065075999139
1.576,-0.0931836333638947
1.578,-0.12763672724762717
1.58,-0.10941319783647918
1.582,-0.11457743681060056
1.584,-0.13147467742180027
1.586,-0.1388927358873238
1.588,-0.12949193963001301
1.59,-0.10939712938242864
1.592,-0.10974819294433534
1.594,-0.1044915068205557
1.596,-0.07678770923941261
1.598,-0.10445993104531344
1.6,-0.09469534602993408
1.602,-0.098151971052642
1.604,-0.12262499282565315
1.606,-0.10329958875310774
1.608,-0.14941271149733384
1.61,-0.13599426829488118
1.612,-0.131855389626988
1.614,-0.13709654026634818
1.616,-0.11483513842535575
1.618,-0.11909352903558511
1.62,-0.11262765921002713
1.622,-0.09206030655901255
1.624,-0.08391460033248818
1.626,-0.08940618668375268
1.628,-0.07588797545792642
1.63,-0.09783911182641035
1.632,-0.08615865499235752
1.634,-0.08130277563828633
1.636,-0.0864811926301785
1.638,-0.08991109549118552
1.64,-0.09164827209173596
1.642,-0.07564203890426809
1.644,-0.0745874635277851
1.646,-0.07500497716937629
1.648,-0.06268041532376936
1.65,-0.06696345350270039
1.652,-0.07716746465073446
1.654,-0.06314737690274702
1.656,-0.04445574534897882
1.658,-0.07229127527273527
1.66,-0.08479149212672522
1.662,-0.036092894635443365
1.664,-0.053523061306730985
1.666,-0.05914424162341699
1.668,-0.04216579557939228
1.67,-0.04079331654244067
1.672,-0.0435260284065655
1.674,-0.029242308564149815
1.676,-0.04340403311074151
1.678,-0.05227111259205927
1.68,-0.04034390930661497
1.682,-0.036627621200091935
1.684,-0.06774373064485692
1.686,-0.04713446283159568
1.688,-0.042270470673387774
1.69,-0.04237817816529193
1.692,-0.03625736652095976
1.694,-0.014902237337878996
1.696,-0.03570475653530672
1.698,0.0024110555359713316
1.7,0.0053405479206633955
1.702,0.01509364430998926
1.704,-0.007729773999120938
1.706,0.024060106731126935
1.708,0.030562381165571244
1.71,0.025296408290145227
1.712,0.02644072805463383
1.714,0.05238806431882797
1.716,0.0352483601811351
1.718,0.05730822279753261
1.72,0.07025426978476054
1.722,0.10448998964177222
1.724,0.048827477006833174
1.726,0.0973822522290996
1.728,0.1301535222058676
1.73,0.09727715643495993
1.732,0.10605217715702066
1.734,0.1414868468306449
1.736,0.10015147256994221
1.738,0.13469910546158143
1.74,0.14737857756066952
1.742,0.12505094123995977
1.744,0.1288965518376647
1.746,0.14503160912191254
1.748,0.13920830412277074
1.75,0.14666292997781458
1.752,0.12964232782718338
1.754,0.14140053432627173
1.756,0.1428986425361839
1.758,0.12895420750979614
1.76,0.1337941872057853
1.762,0.14289785005114897
1.764,0.12020498275320665
1.766,0.1397117509681304
1.768,0.12041953619312809
1.77,0.11187411466551153
1.772,0.12245263837143637
1.774,0.12302554041778742
1.776,0.08192631453659859
1.778,0.06896309749626257
1.78,0.09996924829028574
1.782,0.08003621016990264
1.784,0.01958781499497439
1.786,0.0651961111939513
1.788,0.045070414323160835
1.79,0.02376073717397938
1.792,0.01615011052660333
1.794,0.05175637377675317
1.796,-0.008086564964189174
1.798,0.003880097779191112
1.8,0.00976004099961081
1.802,0.0020983098006533882
1.804,-0.035391732651672246
1.806,-0.02129301322641554
1.808,-0.028529854332252684
1.81,-0.040327012052061365
1.812,-0.06314258097124813
1.814,-0.03950946733497337
1.816,-0.05756709984979537
1.818,-0.05706595492846863
1.82,-0.06348784946456122
1.822,-0.045189879768327404
1.824,-0.0876826953587197
1.826,-0.04424650044829975
1.828,-0.04394825758174936
1.83,-0.1001851241623029
1.832,-0.08071701521163019
1.834,-0.052476832740152156
1.836,-0.08319565507579574
1.838,-0.08694065879670627
1.84,-0.09225715828855348
1.842,-0.10557468935824854
1.844,-0.07785916426117477
1.846,-0.06988788491235899
1.848,-0.10633339592970437
1.85,-0.12148034216996718
1.852,-0.08785615546269093
1.854,-0.04926728122743085
1.856,-0.12574042837195515
1.858,-0.10000748906820164
1.86,-0.08976278982501462
1.862,-0.08509894905016083
1.864,-0.0854235451648922
1.866,-0.08136856122457396
1.868,-0.09546742984157373
1.87,-0.08712898060300815
1.872,-0.06238890947769311
1.874,-0.067762291461879
1.876,-0.08054728058687008
1.878,-0.09674798717329894
1.88,-0.060615564165971754
1.882,-0.05718890403021659
1.884,-0.0901910961164604
1.886,-0.08891505145882247
1.888,-0.07886239800084031
1.89,-0.058318539449277486
1.892,-0.08012394127959305
1.894,-0.08473349378885009
1.896,-0.08141657045154144
1.898,-0.058028883203908165
1.9,-0.06786490919578361
1.902,-0.06856902645337257
1.904,-0.07351751374799093
1.906,-0.06454282268145772
1.908,-0.059516353286068024
1.91,-0.06593127167541132
1.912,-0.04878470922995274
1.914,-0.07261512332541238
1.916,-0.07938150503728866
1.918,-0.045030948372229866
1.92,-0.04180028369785368
1.922,-0.09187622431906316
1.924,-0.058751023795663895
1.926,-0.059983985447572614
1.928,-0.05445998872697655
1.93,-0.07071563171526181
1.932,-0.07021201811577714
1.934,-0.04471202620388831
1.936,-0.07299679753078384
1.938,-0.06994902190834185
1.94,-0.04772025061300773
1.942,-0.0570184333304479
1.944,-0.06347573307482247
1.946,-0.07312218031131405
1.948,-0.051941539503591684
1.95,-0.06840747837057531
1.952,-0.04854344071604324
1.954,-0.06051875579902602
1.956,-0.07595977508704532
1.958,-0.06574135164178722
1.96,-0.028623430072046634
1.962,-0.04950167657693736
1.964,-0.0660571193556684
1.966,-0.052041547116046846
1.968,-0.05329667610764842
1.97,-0.033948349190247994
1.972,-0.06521734791065514
1.974,-0.06163565326746612
1.976,-0.09470177197471563
1.978,-0.07180154381702644
1.98,-0.058307986888152516
1.982,-0.11140983301151856
1.984,-0.08138614057337329
1.986,-0.10111967610200115
1.988,-0.06856509868639694
1.99,-0.0814199795816546
1.992,-0.057043215700971366
1.994,-0.067289071515718
1.996,-0.06103151211321028
1.998,-0.047916180658188846
2.0,-0.024304126615619988
2.002,-0.04473485679261355
2.004,-0.04824649375446997
2.006,-0.03806403456418351
2.008,-0.0254037939866309
2.01,-0.043483207041485464
2.012,-0.02254695645417141
2.014,-0.03973397612075527
2.016,-0.03373076194705816
2.018,-0.023184590857415307
2.02,-0.020203347156751483
2.022,-0.032385975521068214
2.024,-0.02548389626089436
2.026,-0.02500390801313955
2.028,-0.03815198899205024
2.03,-0.029720848564677084
2.032,-0.008356075759804382
2.034,-0.04268290052400342
2.036,-0.045803921066752296
2.038,-0.0004662636070646463
2.04,-0.002701505581999566
2.042,-0.02222103281610636
2.044,-0.02537636453429656
2.046,0.01367588968363095
2.048,0.02108395929260517
2.05,-0.030473367080010163
2.052,0.007952928198157816
2.054,0.0010185860087170153
2.056,-0.013652083565221783
2.058,-0.009563341485069949
2.06,-0.00803958232514009
2.062,-0.029316988292198674
2.064,-0.016699542638954512
2.066,-0.03523866108336536
2.068,-0.02912458698034244
2.07,-0.046359861941265866
2.072,-0.048373284496635215
2.074,-0.08484418035294279
2.076,-0.07290675930809358
2.078,-0.08402395898979091
2.08,-0.10070173823275955
2.082,-0.12238703963169724
2.084,-0.1027243701093065
2.086,-0.10239388108759238
2.088,-0.11101056397167522
2.09,-0.08083472773175282
2.092,-0.07660953612623946
2.094,-0.08812330329507441
2.096,-0.06196840134359849
2.098,-0.04129454984898737
2.1,-0.05601690029113653
2.102,-0.0896764777218771
2.104,-0.0561998400200882
2.106,-0.07253627939136599
2.108,-0.09491588060384334
2.11,-0.10534554995752157
2.112,-0.08472214794655254
2.114,-0.12283960719897621
2.116,-0.11114819264151979
2.118,-0.10041047278727817
2.12,-0.09507863014450865
2.122,-0.11452933314330298
2.124,-0.1061950722087552
2.126,-0.08837139949750109
2.128,-0.1021451055282998
2.13,-0.10190076480693191
2.132,-0.08827758521686023
2.134,-0.0968436705845489
2.136,-0.11579929786357274
2.138,-0.07314320673281674
2.14,-0.07308201221151973
2.142,-0.10468573013758459
2.144,-0.08332846581675273
2.146,-0.07726900472014556
2.148,-0.09934587596194243
2.15,-0.09432290853252913
2.152,-0.09549455979724673
2.154,-0.13641795531077225
2.156,-0.14804454894934035
2.158,-0.10569219671071671
2.16,-0.14839931029366446
2.162,-0.15920760149815316
2.164,-0.14139087530639263
2.166,-0.1318437030281232
2.168,-0.1386570369679179
2.17,-0.11865262014380305
2.172,-0.11056747203287362
2.174,-0.12336263540298192
2.176,-0.08461921806690607
2.178,-0.051638628889002426
2.18,-0.02109314775427222
2.182,0.015774131917053055
2.184,0.09396695104522308
2.186,0.20158343037609555
2.188,0.301104921288483
2.19,0.39873627706442283
2.192,0.4987584139655624
2.194,0.6138525759031145
2.196,0.7216300249275762
2.198,0.7347568211216621
2.2,0.7223255898462326
2.202,0.7133981098022775
2.204,0.6699191054242241
2.206,0.5532954655657475
2.208,0.3814315121603765
2.21,0.2613786194798831
2.212,0.15499162436591996
2.214,0.022333661311416876
2.216,-0.09020771072423922
2.218,-0.17220987606169377
2.22,-0.1966823302799068
2.222,-0.18985588951812368
2.224,-0.1780369833215419
2.226,-0.16554462887649937
2.228,-0.13662988517510805
2.23,-0.09538946028842611
2.232,-0.05875978039866207
2.234,-0.040708931596392495
2.236,-0.07317447833269404
2.238,-0.05727344495523831
2.24,-0.07783796287387562
2.242,-0.10677778769962215
2.244,-0.08050638455551411
2.246,-0.11894840007488178
2.248,-0.13785219712159713
2.25,-0.11836791513299369
2.252,-0.09413197056199923
2.254,-0.09380562626943999
2.256,-0.08515637221783111
2.258,-0.07638025648542181
2.26,-0.10987003270012492
2.262,-0.04751518404896018
2.264,-0.061749799496194815
2.266,-0.0890172244991251
2.268,-0.12407003657753779
2.27,-0.06986481780224639
2.272,-0.07435587096872646
2.274,-0.09597302607587939
2.276,-0.09307620741941003
2.278,-0.06136500198917492
2.28,-0.0852182822822765
2.282,-0.0483186072573617
2.284,-0.054981607450483916
2.286,-0.0622670733198128
2.288,-0.0682104441508559
2.29,-0.04816652585335778
2.292,-0.0644663885881849
2.294,-0.0678373986953013
2.296,-0.05464011989920571
2.298,-0.056446195436021404
2.3,-0.07103985851858019
2.302,-0.03999708624130245
2.304,-0.05133101874044188
2.306,-0.020807004486998387
2.308,-0.05933533599019124
2.31,-0.041000809874464764
2.312,-0.0407551281859789
2.314,-0.025912660036263226
2.316,-0.05357232321731503
2.318,-0.049569987082552
2.32,-0.054453936405649175
2.322,-0.02274914995334467
2.324,-0.03236294589350553
2.326,-0.04010102921232079
2.328,-0.02610890954375037
2.33,0.009177862519453621
2.332,-0.016320856154866736
2.334,-0.023223828631696745
2.336,0.02663191634702292
2.338,-0.00603676500783717
2.34,-0.02444681313682485
2.342,0.010891991013530979
2.344,0.006743334353758708
2.346,-0.0023120357539062044
2.348,-0.011374927691804418
2.35,0.03517870366909459
2.352,0.019485029350566
2.354,0.01891892214256774
2.356,0.03665955850104911
2.358,0.06728319685056841
2.36,0.027978181882338984
2.362,0.06038573828386957
2.364,0.05738025117380954
2.366,0.06596533513196806
2.368,0.0658077521447741
2.37,0.07420330232934816
2.372,0.07555451444352645
2.374,0.08856707765394613
2.376,0.11082733928663045
2.378,0.12491846917606658
2.38,0.09689497967023003
2.382,0.14041452387703846
2.384,0.14798161531815807
2.386,0.15457956764520353
2.388,0.13658052143696542
2.39,0.14718350761659577
2.392,0.15813924847132033
2.394,0.1753302566484837
2.396,0.15894760471060984
2.398,0.15444336883819165
2.4,0.17311447000625804
2.402,0.2036131644490362
2.404,0.19576694753589224
2.406,0.16682440631385861
2.408,0.20568122726555252
2.41,0.22383062881677146
2.412,0.18952870196480856
2.414,0.2094067929932161
2.416,0.1840196453189148
2.418,0.22113607327002419
2.42,0.2000822909084248
2.422,0.19888944529997887
2.424,0.20233056559009083
2.426,0.2042688037042973
2.428,0.2082128312093267
2.43,0.21504913097853223
2.432,0.19504284033230973
2.434,0.1720772799330075
2.436,0.2139299908169924
2.438,0.17131856849098817
2.44,0.14166828061275416
2.442,0.14393635778058275
2.444,0.1447717890653071
2.446,0.11181239387375258
2.448,0.09289312353666081
2.45,0.11744818006659816
2.452,0.07442966672598601
2.454,0.07923433939930037
2.456,0.08529758248229151
2.458,0.07041925228263468
2.46,0.03991928050174349
2.462,0.05279205385316572
2.464,0.05540958442834438
2.466,0.012616734310259375
2.468,0.008632566849072796
2.47,0.017649205046329733
2.472,0.0033328853880918775
2.474,-0.00817671383085636
2.476,-0.012832253305496746
2.478,-0.004089232534465856
2.48,-0.014083111108701774
2.482,-0.009048700245046568
2.484,-0.002943087525763445
2.486,-0.03848327391359169
2.488,-0.027963999656322465
2.49,0.0016829231828076215
2.492,-0.04471462628784364
2.494,-0.062485991827155134
2.496,-0.035926696536226266
2.498,-0.04743486564828747
2.5,-0.05020138781170911
2.502,-0.059604579736495675
2.504,-0.06310512656894011
2.506,-0.050609727991975904
2.508,-0.045625411746410986
2.51,-0.04938281957778218
2.512,-0.06360601936578936
2.514,-0.044585760604391005
2.516,-0.05140833420061709
2.518,-0.05180635316961493
2.52,-0.0504503083341485
2.522,-0.04334798925127787
2.524,-0.06093983670181767
2.526,-0.0550364298386411
2.528,-0.03361750768021524
2.53,-0.035919158716191904
2.532,-0.07649019915136163
2.534,-0.04505532184682974
2.536,-0.020844763113524824
2.538,-0.07463570197991588
2.54,-0.056083790644953675
2.542,-0.043925348693719876
2.544,-0.05497891293011716
2.546,-0.057574243248577406
2.548,-0.04924730093133787
2.55,-0.04908400163176234
2.552,-0.0345776257363522
2.554,-0.03952973630130372
2.556,-0.03752837156280666
2.558,-0.031353097902464586
2.56,-0.030861943627784213
2.562,-0.022825063377406488
2.564,-0.038712810780162456
2.566,-0.04600064441950469
2.568,-0.018838413418516647
2.57,-0.04495368414462954
2.572,-0.03885643757149399
2.574,-0.036450338343376215
2.576,-0.014262538859471895
2.578,-0.04389621319382572
2.58,-0.03026022708671566
2.582,-0.001885663823676115
2.584,-0.022997021651409776
2.586,-0.042618369287895676
2.588,-0.008705543037677517
2.59,-0.03162104961626865
2.592,-0.03615468216696219
2.594,-0.03778417355710676
2.596,-0.018112104237523234
2.598,-0.05273631602900552
2.6,-0.03730574604740593
2.602,-0.004309675470542648
2.604,-0.02064556085866591
2.606,-0.030893203837100442
2.608,-0.003553559947751575
2.61,-0.005568740067577061
2.612,-0.017530144945268715
2.614,-0.007833048304960117
2.616,-0.014208723887852106
2.618,-0.055611964472786345
2.62,-0.015883752954420394
2.622,-0.033111433681234925
2.624,-0.04138367234533636
2.626,-0.0707966614163168
2.628,-0.012082069195742935
2.63,-0.0485538253368516
2.632,-0.035357466753286465
2.634,-0.034574862015896955
2.636,-0.033141591309495434
2.638,-0.03544253208278827
2.64,-0.03206536120296102
2.642,-0.0487541631335478
2.644,-0.04669614037325403
2.646,-0.06004588760982066
2.648,-0.02924300789047455
2.65,-0.07070419813500589
2.652,-0.06240625981951079
2.654,-0.03836136119496238
2.656,-0.017817583597831203
2.658,-0.05686487292523741
2.66,-0.03352782473168301
2.662,-0.035549821574670515
2.664,-0.006268422736972555
2.666,-0.03587293182991087
2.668,-0.05716170344038905
2.67,-0.041446239179038266
2.672,-0.05079823123119891
2.674,-0.042561339282862876
2.676,-0.052795217492619825
2.678,-0.07316173482905738
2.68,-0.04290986801489072
2.682,-0.029170598985424612
2.684,-0.02430904810324465
2.686,-0.041127652945184154
2.688,-0.004594838364125239
2.69,-0.022601335589226106
2.692,-0.021045481900779983
2.694,0.002616562828626231
2.696,-0.017314482430958036
2.698,-0.06175937513967564
2.7,-0.01962143000365938
2.702,-0.0022557885460966457
2.704,-0.05446631194807191
2.706,-0.03640268799194804
2.708,-0.00023029723307924744
2.71,-0.01823570403175214
2.712,-0.0018711420440076228
2.714,0.011025426057120907
2.716,0.014345496562709076
2.718,0.02152895015713391
2.72,0.019248031658237085
2.722,0.00933339362834172
2.724,0.02579357251948876
2.726,0.01291851513641615
2.728,0.001265669557401407
2.73,-0.020088702850726368
2.732,-0.012739899616626553
2.734,0.0025025626051351987
2.736,-0.02082763311765168
2.738,-0.06297960987222868
2.74,-0.04476880898088445
2.742,-0.02616189756266805
2.744,-0.04608815893322519
2.746,-0.0967204239007616
2.748,-0.0677057269620885
2.75,-0.07546775367719369
2.752,-0.08251945080469664
2.754,-0.07418961911802308
2.756,-0.09868592998272732
2.758,-0.09169665200303967
2.76,-0.07689943299927234
2.762,-0.062079823141431664
2.764,-0.08745785038310028
2.766,-0.0853785052865516
2.768,-0.07087322146120822
2.77,-0.07644083291173678
2.772,-0.07021684663959304
2.774,-0.1060373191477142
2.776,-0.0733039433419899
2.778,-0.08365755527980986
2.78,-0.09434795695604845
2.782,-0.10044968320298162
2.784,-0.07646153781267809
2.786,-0.08310666996630255
2.788,-0.10153042690602217
2.79,-0.0990026290125957
2.792,-0.0883330435166421
2.794,-0.08742639802852442
2.796,-0.1126781260727723
2.798,-0.11623718914376252
2.8,-0.09809958179195483
2.802,-0.10669309786179272
2.804,-0.1136191138115544
2.806,-0.1034833724192357
2.808,-0.08789376869799559
2.81,-0.10470267408679317
2.812,-0.0928854737201052
2.814,-0.06862561326237519
2.816,-0.09739104479859075
2.818,-0.08636685068993201
2.82,-0.10364768717638709
2.822,-0.07848186480975684
2.824,-0.11565731933933539
2.826,-0.11459337545437095
2.828,-0.10518764746180422
2.83,-0.10270822549618455
2.832,-0.1272932995714417
2.834,-0.116636174658626
2.836,-0.09686108805098538
2.838,-0.10171880453160496
2.84,-0.1080065121870466
2.842,-0.10407453494611904
2.844,-0.08609060548981043
2.846,-0.04064565699740654
2.848,-0.026553142403119442
2.85,0.013088947760222444
2.852,0.08858053814800478
2.854,0.20220917047205864
2.856,0.2895392273559527
2.858,0.38767846147249185
2.86,0.5194725880474418
2.862,0.6005649516010226
2.864,0.7134663838806361
2.866,0.7656186725560649
2.868,0.7491129379676851
2.87,0.7542699549473207
2.872,0.6947076252505808
2.874,0.5862955480330416
2.876,0.45751078557587915
2.878,0.32963997428768316
2.88,0.18600000595887337
2.882,0.04494032113338253
2.884,-0.04599282696711841
2.886,-0.13729316401884706
2.888,-0.19611237972697482
2.89,-0.19245758887529604
2.892,-0.20277380611849813
2.894,-0.15990694868452285
2.896,-0.1566604346613535
2.898,-0.10046541481576117
2.9,-0.04727821523355694
2.902,-0.0493812156377748
2.904,-0.04913991528701902
2.906,-0.05074265907468852
2.908,-0.022257415354949375
2.91,-0.04995544323514736
2.912,-0.09366379146269957
2.914,-0.08308356268609417
2.916,-0.08642177314714314
2.918,-0.08141016007956475
2.92,-0.0725296808817546
2.922,-0.08542159893913512
2.924,-0.0871309859588002
2.926,-0.03209021332992888
2.928,-0.06851762463810143
2.93,-0.0597227953011921
2.932,-0.06151323851759891
2.934,-0.06535317473959486
2.936,-0.08904275953077939
2.938,-0.06394126188810717
2.94,-0.05558476110620186
2.942,-0.07349249339636763
2.944,-0.09686908356358565
2.946,-0.015460440258125005
2.948,-0.021859720926949537
2.95,-0.0562524536035084
2.952,-0.03306871649537849
2.954,0.005423541307019234
2.956,-0.0503028271855107
2.958,-0.024690838014052974
2.96,-0.033226996505777845
2.962,-0.04870225812577451
2.964,-0.060653529073904484
2.966,-0.0204999138410373
2.968,-0.054129853792872495
2.97,-0.030562161043460788
2.972,-0.015155138563616445
2.974,-0.005428801444100474
2.976,-0.0026115086808262008
2.978,0.00875202015932675
2.98,0.013787927066407916
2.982,0.007712301207457115
2.984,0.0006047998763023353
2.986,0.0012163014217307136
2.988,-0.02555329389664376
2.99,-0.016760194726912148
2.992,-0.014824240771676003
2.994,-0.01942200363013133
2.996,-0.06007849553270416
2.998,0.008722676725230803
3.0,0.005237448800430671
3.002,-0.029263906639444757
3.004,-0.0047627407962162775
3.006,0.02907365684319672
3.008,0.003367948152165887
3.01,0.01189837993499868
3.012,0.008301231698690252
3.014,0.018815459374977268
3.016,0.01905674560461592
3.018,0.029697617790097334
3.02,0.015826058056337276
3.022,0.04182440072568727
3.024,0.043409821894728626
3.026,0.06571903047364357
3.028,0.04576133525005271
3.03,0.06694649416332345
3.032,0.09261817132564105
3.034,0.05614495140382738
3.036,0.08194198676432399
3.038,0.08255927291861757
3.04,0.09107493658406603
3.042,0.07343139676356297
3.044,0.09958147939643017
3.046,0.10725187568762755
3.048,0.10571576957586078
3.05,0.12688420036636397
3.052,0.1451196584700068
3.054,0.1269253603938358
3.056,0.1641580804324084
3.058,0.1730188144013518
3.06,0.16687589042849957
3.062,0.17348029214638294
3.064,0.17586232070991767
3.066,0.18965461502223377
3.068,0.18909004570590338
3.07,0.18667042240876178
3.072,0.1958808808930725
3.074,0.18170279982050747
3.076,0.19660537902932143
3.078,0.20499348581631577
3.08,0.20261320784267897
3.082,0.17532295076380658
3.084,0.18616379533340605
3.086,0.20269517429091022
3.088,0.19605025816106736
3.09,0.1829894885176529
3.092,0.16866343853236304
3.094,0.1963284456337189
3.096,0.18788823263934165
3.098,0.19688661315491526
3.1,0.1792674610430642
3.102,0.15906371090604857
3.104,0.18798258916506982
3.106,0.1814748068358399
3.108,0.135545725752157
3.11,0.12662414649443776
3.112,0.14190350233947402
3.114,0.11245183021729331
3.116,0.07523013031775551
3.118,0.0857153477422911
3.12,0.09255014684497782
3.122,0.06186128832911009
3.124,0.0453595352313425
3.126,0.07049320880239196
3.128,0.06287214840432324
3.13,0.053492056711522844
3.132,0.04726967238966635
3.134,0.023629223270963076
3.136,0.048567195898488846
3.138,0.018574335455145453
3.14,-0.00665852669676601
3.142,-0.021233255579510918
3.144,0.00040874792641163127
3.146,-0.06643754349000121
3.148,-0.06027125172048885
3.15,-0.044974653379475774
3.152,-0.056173290066468075
3.154,-0.1010158693410732
3.156,-0.06444276187870081
3.158,-0.05754100817767151
3.16,-0.0556697984868567
3.162,-0.07143556868624865
3.164,-0.0512692136535385
3.166,-0.056153157900542504
3.168,-0.0426008140018774
3.17,-0.04124648739537787
3.172,-0.05211398301886185
3.174,-0.07067254544807748
3.176,-0.04131409738313215
3.178,-0.05666820198428555
3.18,-0.06937869437161316
3.182,-0.07269004548174603
3.184,-0.056190899778010915
3.186,-0.07342147655846433
3.188,-0.08052342066036762
3.19,-0.05008673293720529
3.192,-0.058554860876491574
3.194,-0.08447867403976181
3.196,-0.053076327395317174
3.198,-0.05525465979334595
3.2,-0.05779376816909839
3.202,-0.08651691443833498
3.204,-0.05018732681386562
3.206,-0.05858905078031028
3.208,-0.09917576829546361
3.21,-0.07903638309034462
3.212,-0.04735847062492278
3.214,-0.09021949171123152
3.216,-0.09662798665886882
3.218,-0.0831409243590769
3.22,-0.04886115032084219
3.222,-0.10275306562423037
3.224,-0.060924117235982546
3.226,-0.0929214582907338
3.228,-0.07806328628543728
3.23,-0.05972714095541443
3.232,-0.051438850347310425
3.234,-0.09802260775653468
3.236,-0.06333175839566169
3.238,-0.039049113775517445
3.24,-0.04222730342877991
3.242,-0.07253616939085376
3.244,-0.03887354903217247
3.246,-0.045610810349091466
3.248,-0.052939882172535736
3.25,-0.047565395879366264
3.252,-0.05961987638135174
3.254,-0.07910154686252485
3.256,-0.06557798217666894
3.258,-0.0755908443384279
3.26,-0.0715420564896606
3.262,-0.08974658417781563
3.264,-0.05507188268342414
3.266,-0.07004209768247238
3.268,-0.05703950016340779
3.27,-0.04411505389057571
3.272,-0.023829019190941957
3.274,-0.04858668208984487
3.276,-0.050488325853718756
3.278,-0.026172325994528907
3.28,-0.03653611445127151
3.282,-0.0713310923866182
3.284,-0.07477292935914441
3.286,-0.06623248504951848
3.288,-0.07914594482335424
3.29,-0.08959132390076369
3.292,-0.07679604288059057
3.294,-0.09551076234288472
3.296,-0.07008054208956113
3.298,-0.07381658930990119
3.3,-0.05330691873427404
3.302,-0.08936155845364757
3.304,-0.04975686389986785
3.306,-0.06331416451808568
3.308,-0.07693440967070167
3.31,-0.06906154639769674
3.312,-0.06665334243453973
3.314,-0.08970499822494524
3.316,-0.07697372761784614
3.318,-0.06952908447649632
3.32,-0.09031276427118397
3.322,-0.08353780331485662
3.324,-0.0502649172037306
3.326,-0.08963957928184606
3.328,-0.10413729085409866
3.33,-0.06063279033008347
3.332,-0.07430899066175001
3.334,-0.09789071598932686
3.336,-0.10732186514996425
3.338,-0.08715429885183418
3.34,-0.08182525487747974
3.342,-0.08393217235929527
3.344,-0.08171491316888753
3.346,-0.09409256280690179
3.348,-0.06327824868917743
3.35,-0.05335553561543958
3.352,-0.06722081048109645
3.354,-0.060207304537522745
3.356,-0.09348490620859373
3.358,-0.055987145648669606
3.36,-0.07204852665258449
3.362,-0.08921655513173707
3.364,-0.08090886165339181
3.366,-0.10367349595409595
3.368,-0.0755503980384804
3.37,-0.06469537201365143
3.372,-0.08353149586692404
3.374,-0.06164282437235976
3.376,-0.06136031084447784
3.378,-0.05116807964095541
3.38,-0.05091485975053336
3.382,-0.04474026975585142
3.384,-0.04628676646868617
3.386,-0.059132879303609096
3.388,-0.056792739046522336
3.39,-0.04564104494117889
3.392,-0.03688608205941045
3.394,-0.04722779272599044
3.396,-0.048124760597656566
3.398,-0.0243319871569172
3.4,-0.02603128786375656
3.402,1.4958337253388623e-06
3.404,-0.012327840666136645
3.406,-0.032966261558941834
3.408,-0.025954053749246087
3.41,0.012697074578788435
3.412,-0.03676495685819311
3.414,-0.0493685056763744
3.416,-0.056374288659158174
3.418,-0.04399853990990962
3.42,-0.053015597120723665
3.422,-0.07740426915667425
3.424,-0.06888824704747887
3.426,-0.08756509882000868
3.428,-0.08592308449593841
3.43,-0.0514013978603923
3.432,-0.11103751733992458
3.434,-0.10616161847254281
3.436,-0.07707936057905362
3.438,-0.09147071910909095
3.44,-0.12107183406464085
3.442,-0.09485308025846315
3.444,-0.08667743209062309
3.446,-0.11238669976888656
3.448,-0.11869293063125588
3.45,-0.07260366926952873
3.452,-0.10547384311403672
3.454,-0.12018760264032892
3.456,-0.09723752758209911
3.458,-0.10535825645129782
3.46,-0.11819502513058164
3.462,-0.09002907607652647
3.464,-0.13122865326791705
3.466,-0.10144030955649312
3.468,-0.10321363522081262
3.47,-0.08610489673490976
3.472,-0.11522564648576691
3.474,-0.08139164324816131
3.476,-0.09907990322842965
3.478,-0.0913231617859308
3.48,-0.10083268750762765
3.482,-0.0925593946191995
3.484,-0.12086536661112884
3.486,-0.11017369234152734
3.488,-0.10768422065895518
3.49,-0.11009453422146942
3.492,-0.13335409775942353
3.494,-0.08294552827942568
3.496,-0.10948962031364402
3.498,-0.09839318804534176
3.5,-0.11182647564073751
3.502,-0.0640991888502256
3.504,-0.0988010187175801
3.506,-0.11784351730215455
3.508,-0.11576479434969007
3.51,-0.10145580623237298
3.512,-0.12465975346168534
3.514,-0.13403511171697371
3.516,-0.16618549493363913
3.518,-0.13250709833242869
3.52,-0.1449059117430844
3.522,-0.1270916208096389
3.524,-0.17385718957382598
3.526,-0.14172812410040844
3.528,-0.12235322836179148
3.53,-0.09993678663565808
3.532,-0.10716362338292465
3.534,-0.0512196160269673
3.536,0.016926897525646366
3.538,0.059950175891780276
3.54,0.16492207902765887
3.542,0.30353745648006997
3.544,0.35020416182051334
3.546,0.4864384407502903
3.548,0.6088246685464269
3.55,0.6936192221341491
3.552,0.723383690664518
3.554,0.7561145836222875
3.556,0.7394983352641763
3.558,0.6771633217202284
3.56,0.5948463440743536
3.562,0.47355478093104525
3.564,0.32301169313226524
3.566,0.19043002844387621
3.568,0.07067849582203438
3.57,-0.03685163147994271
3.572,-0.1517917382534423
3.574,-0.19100374634494247
3.576,-0.21495815464324497
3.578,-0.22655488787811023
3.58,-0.2114951622528377
3.582,-0.17703985574476286
3.584,-0.13351575077946679
3.586,-0.12896951064238563
3.588,-0.07875440501865347
3.59,-0.06038251453536186
3.592,-0.07241236084765201
3.594,-0.048998998702767006
3.596,-0.07197024302623024
3.598,-0.07146479455436086
3.6,-0.07522984501026787
3.602,-0.07434764247717146
3.604,-0.10423033386061002
3.606,-0.06312923937146028
3.608,-0.07621571374663653
3.61,-0.07035367464569582
3.612,-0.07296429620328196
3.614,-0.057021599523951874
3.616,-0.05430763302241728
3.618,-0.06689774455907295
3.62,-0.07544021247197433
3.622,-0.05736869486218824
3.624,-0.09174114356889077
3.626,-0.07521984874946396
3.628,-0.07014036975614392
3.63,-0.07412430397882151
3.632,-0.09689899770192642
3.634,-0.05719067105586796
3.636,-0.04776281697952984
3.638,-0.052540483735741494
3.64,-0.05271668165013701
3.642,-0.040007101068032305
3.644,-0.046074131940708155
3.646,-0.015993619794478022
3.648,-0.014170014340460852
3.65,-0.056781546087307
3.652,-0.04707269615084049
3.654,-0.009631701580290225
3.656,-0.01784537692824432
3.658,-0.042753275593857415
3.66,-0.0614948559356936
3.662,-0.02226541839630317
3.664,-0.030856947526165558
3.666,-0.03600741692214238
3.668,-0.04892310439795707
3.67,-0.050231109577308836
3.672,-0.03039877932548513
3.674,-0.03085893982514261
3.676,-0.03455669479376972
3.678,-0.030691335809204565
3.68,-0.02934998705039331
3.682,0.008815236338953108
3.684,-0.019204060344690285
3.686,-0.007143145648876242
3.688,0.02275974702925659
3.69,0.010004026853525527
3.692,0.004011117117730797
3.694,0.025252889093184894
3.696,0.016165847306739783
3.698,0.0026735815296509693
3.7,0.03843245325130175
3.702,0.019318866347573113
3.704,-0.021026282699139826
3.706,0.03417331193057105
3.708,0.04257097067949294
3.71,0.008853412813316006
3.712,0.023356277193660957
3.714,0.05294916666881072
3.716,0.040736552024942536
3.718,0.05563888637797104
3.72,0.09596737579178154
3.722,0.056925047050543326
3.724,0.07192379045900484
3.726,0.09600921907672028
3.728,0.11883428740063759
3.73,0.08042046512032816
3.732,0.09840468737611903
3.734,0.09447463100263948
3.736,0.11295582943839093
3.738,0.10417368658198921
3.74,0.14183079103093715
3.742,0.07958619067747673
3.744,0.13809515756938112
3.746,0.15627797921911177
3.748,0.15675102667908325
3.75,0.1451207442302597
3.752,0.1769981033959324
3.754,0.1806145283676286
3.756,0.19301490818147915
3.758,0.19083242958698826
3.76,0.20212682746519747
3.762,0.18885135460962657
3.764,0.1898102700363297
3.766,0.21769440993169203
3.768,0.21537897957153737
3.77,0.16035933846010808
3.772,0.21517712205388434
3.774,0.217850765106725
3.776,0.1982419300754464
3.778,0.18227609321254787
3.78,0.20675835850612034
3.782,0.19436552427183743
3.784,0.18926608995469324
3.786,0.17977969713680106
3.788,0.19061795181481941
3.79,0.1456224521523298
3.792,0.175723463876068
3.794,0.17063307103262512
3.796,0.15037368584977293
3.798,0.12722948281664123
3.8,0.15508120850445242
3.802,0.11930173188757613
3.804,0.12949513289656273
3.806,0.0988386525889271
3.808,0.10415302317713163
3.81,0.05337447287963097
3.812,0.07990247136900443
3.814,0.06099649607791241
3.816,0.024925635651162906
3.818,0.01754431249213891
3.82,0.0417672852118177
3.822,-0.0011152793325222726
3.824,0.002319934145873093
3.826,0.015064715776877983
3.828,0.015280797186152276
3.83,-0.023882342162882902
3.832,-0.001551047632247494
3.834,0.002071829247220659
3.836,-0.002620817236123408
3.838,-0.028223879114828994
3.84,-0.0027507514312774934
3.842,-0.04547985722205283
3.844,-0.011443846959912699
3.846,-0.02721217571483546
3.848,-0.013897224637597757
3.85,-0.05393761548798697
3.852,-0.04406958241274563
3.854,-0.04031766323153185
3.856,-0.016941605532829127
3.858,-0.05805772479048257
3.86,-0.07098386724107439
3.862,-0.06930279172991394
3.864,-0.03865851207747041
3.866,-0.056597412166180264
3.868,-0.058086786971320574
3.87,-0.07590036369986432
3.872,-0.05074660976502134
3.874,-0.03636957723643239
3.876,-0.03225304281870756
3.878,-0.04306903072141645
3.88,-0.03912799501388227
3.882,-0.05712621569367811
3.884,-0.02147278789725006
3.886,-0.0332607864692394
3.888,-0.06073847491548668
3.89,-0.06594886165398814
3.892,-0.06080505410869084
3.894,-0.04154895441761282
3.896,-0.06491010345898286
3.898,-0.06659940979290786
3.9,-0.04168230175057426
3.902,-0.04028971489043269
3.904,-0.04888127385974168
3.906,-0.040377315988356234
3.908,-0.00240943378649183
3.91,-0.03592588367224499
3.912,-0.039081310352943634
3.914,-0.025747358073200593
3.916,-0.027562954237467102
3.918,-0.03081917148407087
3.92,-0.03122185365317534
3.922,-0.0458578349161371
3.924,-0.04966389957979485
3.926,-0.02763142669071172
3.928,-0.02965791504279912
3.93,-0.025047978326273382
3.932,-0.042042303811261825
3.934,-0.031058506323907345
3.936,-0.014955650495669378
3.938,-0.004238084546524627
3.94,-0.018020142186796765
3.942,-0.02987007412369212
3.944,-0.011097108940228691
3.946,-0.0033268454995195934
3.948,-0.029939832228504677
3.95,-0.007628083816202147
3.952,-0.014648047464179576
3.954,-0.04356231538721385
3.956,-0.032171258071844414
3.958,-0.012148067000800386
3.96,-0.030149863837690603
3.962,-0.04018794350208448
3.964,-0.040184685571697305
3.966,-0.027927551666452707
3.968,-0.01732845814684584
3.97,-0.014861676679399007
3.972,-0.03200982044734927
3.974,-0.013120409750271454
3.976,-0.008756261626284586
3.978,-0.012178854346308374
3.98,-0.010039349240079227
3.982,-0.025324421107146004
3.984,-0.004670530738130871
3.986,-0.025206161743942836
3.988,-0.051627897257435426
3.99,-0.007531106560387706
3.992,-0.011416836537582471
3.994,-0.03782726011124462
3.996,-0.03527259544249481
3.998,-0.018842444817290645
4.0,-0.007357352319874049
4.002,0.012726329091640991
4.004,-0.041022316627098446
4.006,-0.020189036951749433
4.008,-0.017196478400965495
4.01,-0.0019499035575554497
4.012,-0.020568813998727568
4.014,-0.04894188520553622
4.016,-0.04907943590526977
4.018,-0.007311720964993491
4.02,-0.0348647307356745
4.022,-0.04104862609694487
4.024,-0.02194183194259115
4.026,-0.02690095981448123
4.028,-0.040575199585019
4.03,-0.0118390446260066
4.032,-0.013269109472192234
4.034,-0.04275342308816814
4.036,-0.06857742786810726
4.038,-0.019749465978056584
4.04,-0.03375060267182683
4.042,-0.07580326892782414
4.044,-0.06325363525059613
4.046,-0.02810412893221886
4.048,-0.055169106543238464
4.05,-0.04143908683604471
4.052,-0.024470718050290868
4.054,-0.02133090916878102
4.056,-0.020799844589603652
4.058,0.0019808223817598717
4.06,-0.015180240912553693
4.062,-0.015522324629437716
4.064,0.0051566034801815135
4.066,-0.005760788189513433
4.068,-0.03971563623360367
4.07,-0.008591903522718367
4.072,-0.0073963622957982445
4.074,-0.020845821057049848
4.076,-0.03862380116706271
4.078,0.005247650949499586
4.08,-0.014821375396714164
4.082,-0.017311897232588434
4.084,-0.011066354188060184
4.086,0.012712458185479893
4.088,-0.007029949863359891
4.09,-0.0104752916319797
4.092,0.016429776363775468
4.094,0.021741651177486297
4.096,-0.008077034966464135
4.098,0.03269184470734355
4.1,0.035291005819303285
4.102,0.01480925221096885
4.104,0.037486394609310754
4.106,0.046036908206029445
4.108,0.022899177754078806
4.11,0.039900577198898564
4.112,0.03693429678633652
4.114,0.004990714426360831
4.116,0.013921173877707544
4.118,0.03235687774541449
4.12,-0.011912538659247417
4.122,-0.019818520732807213
4.124,-0.009267376561621505
4.126,-0.008201721581557067
4.128,-0.027391321422552153
4.13,-0.036968230354339875
4.132,-0.02306765518162736
4.134,-0.030933068993867725
4.136,-0.04046360042758072
4.138,-0.02431248460679076
4.14,-0.025419386111897913
4.142,-0.036575865419987065
4.144,-0.040370796433195806
4.146,-0.012994461512144702
4.148,-0.024086596430961792
4.15,-0.04263370106106557
4.152,-0.031957643172311874
4.154,-0.03538693565955615
4.156,-0.058240484839783
4.158,-0.027309408696755067
4.16,-0.0674267666973563
4.162,-0.08481531900095804
4.164,-0.04441043224968881
4.166,-0.05491491221922341
4.168,-0.08340487967291538
4.17,-0.07300449916885277
4.172,-0.036626344633835316
4.174,-0.05229615385978322
4.176,-0.07659925129019812
4.178,-0.034041773505413764
4.18,-0.05014737331821504
4.182,-0.07716147823537368
4.184,-0.03514594070818493
4.186,-0.060397159296294606
4.188,-0.08273134835495637
4.19,-0.07751076344431775
4.192,-0.04244809687528843
4.194,-0.06851657049446408
4.196,-0.0778249981770864
4.198,-0.05336354085403136
4.2,-0.06334428005786237
4.202,-0.045934549631382444
4.204,-0.04459486836107909
4.206,-0.05353136049736508
4.208,-0.07231566967653943
4.21,-0.0710594417601417
4.212,-0.042293880452783136
4.214,-0.0615892649466071
4.216,-0.12472363836071006
4.218,-0.07415520275734053
4.22,-0.08744092707516403
4.222,-0.10737925088770142
4.224,-0.09406293475917303
4.226,-0.10914612046104763
4.228,-0.10594795970410092
4.23,-0.07845881942575976
4.232,-0.06055498523111275
4.234,-0.025849857120698937
4.236,0.038050882396784474
4.238,0.1015638394258409
4.24,0.16127988987326372
4.242,0.2910920781969544
4.244,0.4306123832819234
4.246,0.49713576545240384
4.248,0.5680842674022903
4.25,0.7042779824612965
4.252,0.7758241977177034
4.254,0.7650610498540071
4.256,0.7592223757331128
4.258,0.7248544241324413
4.26,0.6446644749170091
4.262,0.5299146932248313
4.264,0.4240884748803047
4.266,0.2775204146204791
4.268,0.15320244441141417
4.27,0.031587517134128607
4.272,-0.062401987965361685
4.274,-0.13070534218899124
4.276,-0.16071247860189966
4.278,-0.20729749242966578
4.28,-0.20708158535661683
4.282,-0.1707899788164973
4.284,-0.1731152170395445
4.286,-0.11414569631923267
4.29,0.013346408653267871
4.292,-0.18911992153319127
4.294,0.010677436582196128
4.296,0.05326712595214951
4.298,0.029569000377614917
4.3,-0.0012714478176810804
4.302,-0.008174894776089226
4.304,0.062084852963294426
4.306,0.04180200295222343
4.308,-0.01594606468065328
4.31,-0.02343145957862937
4.312,-0.05162746635719466
4.314,-0.07063403659641172
4.316,-0.04763016672792798
4.318,-0.09071657105752597
4.32,-0.11029901442521887
4.322,-0.13253236384642475
4.324,-0.0643202462731323
4.326,0.0013457523114168827
4.328,-0.08059437172756204
4.33,-0.0027860932774571964
